"time","x","y","position","velocity","acceleration","jerk","heading"
0,3,20.525,0,0,0,0,0
0.04,3.08876,20.525,0.0887615,2.21904,55.4759,1386.9,0.0128516
0.08,3.17753,20.525,0.177533,2.21929,0.00625002,-1386.74,0.0257032
0.12,3.26629,20.525,0.266294,2.21904,-0.00624996,-0.312499,0.0385548
0.16,3.35506,20.525,0.355056,2.21904,-3.23527e-06,0.156168,0.0514065
0.2,3.44382,20.525,0.443817,2.21904,3.38576e-06,0.000165526,0.0642581
0.24,3.53259,20.5251,0.532589,2.21929,0.00628472,0.157033,0.0771097
0.28,3.62135,20.5252,0.62135,2.21904,-0.00624997,-0.313367,0.0899613
0.32,3.71011,20.5253,0.710112,2.21904,-3.25643e-06,0.156168,0.102813
0.36,3.79887,20.5254,0.798874,2.21904,-9.83446e-06,-0.000164451,0.115665
0.4,3.88764,20.5256,0.887645,2.21929,0.00638767,0.159938,0.128516
0.44,3.97641,20.5257,0.976407,2.21904,-0.00638748,-0.319379,0.141368
0.48,4.16625,20.5262,1.16625,4.74613,63.1774,1579.6,0.203404
0.52,4.37833,20.5269,1.37834,5.30211,13.8994,-1231.95,0.276263
0.56,4.59043,20.5278,1.59043,5.30239,0.00702076,-347.31,0.349121
0.6,4.80251,20.5291,1.80252,5.30218,-0.00525158,-0.306808,0.421979
0.64,5.0262,20.5307,2.02622,5.59241,7.25568,181.523,0.508713
0.68,5.29987,20.5333,2.2999,6.84206,31.2413,599.64,0.655135
0.72,5.57353,20.5365,2.57358,6.84197,-0.00225031,-781.088,0.801557
0.76,5.84718,20.5405,2.84726,6.84198,0.000323392,0.0643424,0.947979
0.8,6.15126,20.5458,3.15138,7.60305,19.0266,475.657,1.14811
0.84,6.4728,20.5526,3.47299,8.04024,10.9298,-202.42,1.37911
0.88,6.79429,20.5608,3.79459,8.04007,-0.00421779,-273.351,1.6101
0.92,7.14183,20.5712,4.14229,8.69235,16.307,407.782,1.89307
0.96,7.50399,20.5842,4.50468,9.05982,9.18672,-178.008,2.20536
1,7.86609,20.599,4.86708,9.06,0.00445044,-229.557,2.51764
1.04,8.24717,20.617,5.24858,9.53757,11.9393,298.37,2.86793
1.08,8.62813,20.6373,5.63008,9.53759,0.000470349,-298.47,3.21822
1.12,9.01141,20.6604,6.01406,9.59935,1.54394,38.5867,3.52178
1.16,9.39701,20.6858,6.40049,9.6609,1.53881,-0.128281,3.77861
1.2,9.7825,20.713,6.78694,9.6612,0.00757945,-38.2806,4.03545
1.24,10.1721,20.7419,7.17764,9.76752,2.65795,66.2592,4.2119
1.28,10.5616,20.7719,7.56831,9.76661,-0.0226397,-67.0146,4.38834
1.32,10.9586,20.8038,7.96658,9.95681,4.75501,119.441,4.42072
1.36,11.3633,20.8359,8.37254,10.1489,4.80165,1.16599,4.30902
1.4,11.768,20.8674,8.77844,10.1475,-0.0346188,-120.907,4.19733
1.44,12.1771,20.8975,9.18861,10.2543,2.67118,67.645,4.00429
1.48,12.5862,20.9263,9.59879,10.2545,0.00426623,-66.6729,3.81124
1.52,12.9996,20.9535,10.0131,10.3577,2.58012,64.3964,3.53957
1.56,13.4174,20.9781,10.4316,10.4621,2.61075,0.765706,3.18926
1.6,13.8354,21.0002,10.8501,10.4638,0.0408549,-64.2474,2.83896
1.64,14.253,21.0196,11.2682,10.451,-0.318752,-8.99016,2.49597
1.68,14.6708,21.0366,11.6863,10.4534,0.0596279,9.45949,2.15298
1.72,15.0876,21.051,12.1034,10.4273,-0.65275,-17.8094,1.82996
1.76,15.5034,21.0629,12.5194,10.3992,-0.703762,-1.27531,1.52689
1.8,15.9193,21.0728,12.9354,10.4003,0.029336,18.3275,1.22383
1.84,16.3318,21.0806,13.348,10.3155,-2.12055,-53.7473,0.984229
1.88,16.7445,21.0866,13.7607,10.3173,0.045775,54.1582,0.744627
1.92,17.155,21.0911,14.1712,10.2622,-1.37951,-35.6321,0.546445
1.96,17.5631,21.0942,14.5794,10.2047,-1.43603,-1.41304,0.389678
2,17.9714,21.0963,14.9877,10.207,0.0580494,37.352,0.232913
2.04,18.3752,21.0974,15.3915,10.0952,-2.79671,-71.3691,0.160837
2.08,18.779,21.0979,15.7953,10.0951,-0.00073396,69.8995,0.0887605
2.12,19.1777,21.0978,16.1939,9.96667,-3.21175,-80.2753,0.114011
2.16,19.5712,21.0979,16.5875,9.83822,-3.21133,0.0103597,0.236582
2.2,19.9647,21.0988,16.981,9.83825,0.00067319,80.3001,0.359156
2.24,20.347,21.1014,17.3633,9.55747,-7.01939,-175.502,0.694604
2.28,20.7293,21.1061,17.7456,9.55803,0.0139043,175.832,1.03005
2.32,21.1078,21.1135,18.1241,9.46292,-2.37755,-59.7864,1.43654
2.36,21.4824,21.1244,18.4989,9.36893,-2.34994,0.690404,1.91406
2.4,21.857,21.1384,18.8738,9.37167,0.0686468,60.4646,2.39157
2.44,22.2313,21.1557,19.2485,9.36807,-0.0900978,-3.96861,2.86898
2.48,22.6055,21.1762,19.6233,9.36987,0.0449038,3.37504,3.34639
2.52,22.9841,21.2002,20.0026,9.48384,2.84928,70.1094,3.73735
2.56,23.3672,21.2266,20.3866,9.59921,2.88429,0.875295,4.04188
2.6,23.75,21.2551,20.7705,9.59817,-0.0260412,-72.7583,4.3464
2.64,24.1448,21.2865,21.1666,9.90097,7.57,189.901,4.42064
2.68,24.5396,21.3183,21.5626,9.90175,0.0196068,-188.76,4.49489
2.72,24.9424,21.3514,21.9668,10.1035,5.0445,125.622,4.41734
2.76,25.3532,21.384,22.3788,10.3017,4.95323,-2.28164,4.188
2.8,25.7642,21.415,22.791,10.3036,0.0477062,-122.638,3.95865
2.84,26.197,21.4448,23.2249,10.847,13.5866,338.471,3.31615
2.88,26.6303,21.4697,23.6588,10.8497,0.0673012,-337.981,2.67364
2.92,27.0795,21.4899,24.1085,11.242,9.80576,243.462,1.73113
2.96,27.545,21.5016,24.5742,11.6408,9.97156,4.14483,0.488618
3,28.0106,21.5031,25.0398,11.64,-0.0198,-249.784,-0.753892
3.04,28.5324,21.491,25.5617,13.0477,35.1913,880.277,-3.06355
3.08,29.0532,21.4578,26.0835,13.0465,-0.0296945,-880.524,-5.37324
3.12,29.6263,21.3967,26.6599,14.4086,34.0529,852.065,-8.71532
3.16,30.2477,21.2877,27.2908,15.7728,34.1041,1.28071,-13.0916
3.2,30.8589,21.1315,27.9216,15.7717,-0.0273771,-853.288,-17.4679
3.24,31.4917,20.9143,28.5906,16.7245,23.8213,596.217,-22.5688
3.28,32.1026,20.6418,29.2596,16.7255,0.0236767,-594.941,-27.6699
3.32,32.7285,20.2793,29.983,18.0825,33.9267,847.577,-33.8058
3.36,33.3469,19.8072,30.7609,19.4495,34.1736,6.17243,-40.974
3.4,33.9016,19.2618,31.5388,19.4476,-0.0477397,-855.534,-48.1413
3.44,34.3311,18.7129,32.2358,17.4231,-50.6108,-1264.08,-53.773
3.48,34.7047,18.1245,32.9327,17.424,0.0221081,1265.82,-59.4047
3.52,35.0067,17.531,33.5987,16.6488,-19.3813,-485.084,-64.447
3.56,35.2476,16.9432,34.2339,15.8808,-19.1989,4.55822,-68.9071
3.6,35.442,16.3387,34.8689,15.8746,-0.155367,476.089,-73.3621
3.64,35.5753,15.8083,35.4159,13.6744,-55.0044,-1371.23,-76.1475
3.68,35.6827,15.272,35.9628,13.6735,-0.0234573,1374.52,-78.933
3.72,35.762,14.7733,36.4677,12.6222,-26.2821,-656.465,-80.919
3.76,35.8255,14.3147,36.9307,11.5752,-26.176,2.65053,-82.1127
3.8,35.8794,13.855,37.3936,11.5719,-0.0819127,652.353,-83.3048
3.84,35.926,13.4298,37.8213,10.6938,-21.9519,-546.75,-83.8291
3.88,35.9687,13.0042,38.249,10.6918,-0.0513596,547.514,-84.3533
3.92,36.0092,12.5791,38.676,10.6758,-0.399645,-8.70714,-84.8653
3.96,36.0476,12.1545,39.1024,10.6585,-0.432377,-0.8183,-85.3653
4,36.0822,11.7294,39.5289,10.6623,0.0951863,13.1891,-85.8665
4.04,36.1122,11.2721,39.9871,11.4571,19.8697,494.363,-86.9711
4.08,36.1332,10.8143,40.4455,11.4585,0.0357193,-495.849,-88.0756
4.12,36.1449,10.3378,40.9221,11.9155,11.426,284.758,-89.5283
4.16,36.1424,9.84286,41.4171,12.3737,11.4531,0.675614,-91.3261
4.2,36.1243,9.34823,41.912,12.3742,0.0119874,-286.027,-93.1253
4.24,36.0858,8.81963,42.442,13.25,21.8965,547.114,-95.5885
4.28,36.0246,8.29317,42.972,13.2501,0.00115568,-547.384,-98.0516
4.32,35.9365,7.74453,43.5277,13.8917,16.0399,400.97,-101.001
4.36,35.813,7.17671,44.1088,14.5274,15.894,-3.64833,-104.433
4.4,35.6557,6.61729,44.6899,14.5276,0.00390385,-397.253,-107.865
4.44,35.4608,6.0607,45.2796,14.7439,5.40843,135.113,-111.461
4.48,35.2312,5.51748,45.8694,14.7431,-0.0203995,-135.721,-115.056
4.52,34.9587,4.97617,46.4754,15.1512,10.2038,255.604,-118.962
4.56,34.6385,4.4425,47.0978,15.5588,10.1878,-0.398574,-123.176
4.6,34.2799,3.93382,47.7201,15.5592,0.00998127,-254.446,-127.39
4.64,33.8807,3.45026,48.3472,15.6761,2.9232,72.8304,-131.693
4.68,33.4464,2.998,48.9743,15.6769,0.019984,-72.5803,-135.997
4.72,32.9916,2.5912,49.5844,15.2546,-10.5567,-264.416,-139.982
4.76,32.5229,2.22674,50.1781,14.8427,-10.2976,6.47691,-143.652
4.8,32.032,1.89306,50.7717,14.839,-0.0940203,255.089,-147.321
4.84,31.5226,1.59261,51.3631,14.785,-1.34806,-31.3509,-150.947
4.88,30.9953,1.32497,51.9544,14.7829,-0.0529289,32.3782,-154.573
4.92,30.4743,1.09801,52.5228,14.2081,-14.3692,-357.908,-157.763
4.96,29.964,0.904644,53.0684,13.6416,-14.1624,5.17167,-160.523
5,29.4452,0.736111,53.6139,13.6382,-0.0850277,351.933,-163.28
5.04,28.9489,0.59816,54.129,12.8775,-19.0184,-473.336,-165.461
5.08,28.4478,0.479212,54.6441,12.8764,-0.0278324,474.765,-167.641
5.12,27.9552,0.381405,55.1463,12.554,-8.05956,-200.793,-169.576
5.16,27.4725,0.301044,55.6356,12.2345,-7.98902,1.76332,-171.269
5.2,26.9878,0.234986,56.1249,12.2303,-0.104187,197.121,-172.96
5.24,26.5234,0.184251,56.592,11.6787,-13.7902,-342.15,-174.231
5.28,26.058,0.143813,57.0591,11.6785,-0.00463547,344.639,-175.503
5.32,25.6023,0.114114,57.5158,11.4172,-6.53333,-163.217,-176.578
5.36,25.1562,0.0925343,57.9624,11.1643,-6.32163,5.29246,-177.459
5.4,24.71,0.077801,58.4089,11.1618,-0.0622436,156.485,-178.339
5.44,24.2841,0.0691496,58.8348,10.6489,-12.8228,-319.015,-178.831
5.48,23.8581,0.0641412,59.2608,10.65,0.0288287,321.292,-179.323
5.52,23.436,0.06132,59.683,10.5547,-2.38318,-60.3002,-179.745
5.56,23.0173,0.0598644,60.1017,10.466,-2.21818,4.12491,179.902
5.6,22.5987,0.0609737,60.5203,10.466,-0.000785653,55.435,179.549
5.64,22.1698,0.0636489,60.9492,10.7221,6.40448,160.132,179.002
5.68,21.7409,0.0704097,61.3781,10.7231,0.0250881,-159.485,178.455
5.72,21.3016,0.0813721,61.8176,10.9876,6.61268,164.69,177.707
5.76,20.8519,0.0990283,62.2676,11.251,6.58281,-0.74673,176.759
5.8,20.4025,0.124121,62.7177,11.2511,0.00424515,-164.464,175.811
5.84,19.9313,0.162598,63.1904,11.8189,14.1944,354.755,174.433
5.88,19.4613,0.212395,63.6631,11.8162,-0.0671491,-356.54,173.055
5.92,18.9845,0.27472,64.144,12.0213,5.12818,129.883,171.524
5.96,18.5019,0.351727,64.6327,12.2195,4.95438,-4.34506,169.843
6,18.0217,0.442867,65.1214,12.2173,-0.0559678,-125.259,168.162
6.04,17.5359,0.552069,65.6194,12.4496,5.808,146.599,166.306
6.08,17.0539,0.67693,66.1173,12.4468,-0.0698932,-146.947,164.451
6.12,16.5725,0.818731,66.6191,12.546,2.47897,63.7216,162.523
6.16,16.0929,0.978384,67.1246,12.6379,2.29905,-4.498,160.523
6.2,15.6191,1.15467,67.6302,12.6387,0.018957,-57.0023,158.523
6.24,15.15,1.34876,68.1379,12.6917,1.32602,32.6766,156.483
6.28,14.688,1.55942,68.6456,12.6934,0.0408646,-32.129,154.443
6.32,14.234,1.78651,69.1532,12.6912,-0.0552176,-2.40205,152.403
6.36,13.7882,2.02981,69.661,12.6953,0.102461,3.94195,150.361
6.4,13.3515,2.2888,70.1688,12.6929,-0.0582779,-4.01846,148.32
6.44,12.9244,2.56321,70.6765,12.693,0.00178596,1.5016,146.279
6.48,12.5072,2.85267,71.1842,12.6933,0.00786988,0.152098,144.238
6.52,12.1016,3.15599,71.6907,12.6627,-0.765445,-19.3329,142.22
6.56,11.7076,3.47256,72.1961,12.6345,-0.703745,1.5425,140.224
6.6,11.325,3.80266,72.7014,12.633,-0.0386653,16.627,138.228
6.64,10.954,4.14596,73.2069,12.6379,0.121434,4.00248,136.229
6.68,10.595,4.50199,73.7125,12.6389,0.0255525,-2.39704,134.23
6.72,10.2484,4.87064,74.2185,12.6507,0.295512,6.74898,132.221
6.76,9.91449,5.25157,74.7251,12.6642,0.337544,1.05081,130.202
6.8,9.59423,5.64402,75.2316,12.6635,-0.0179698,-8.88784,128.183
6.84,9.28635,6.04923,75.7405,12.7225,1.47639,37.359,126.12
6.88,8.99325,6.46527,76.2494,12.723,0.0124718,-36.598,124.057
6.92,8.71343,6.89475,76.762,12.8148,2.2941,57.0407,121.924
6.96,8.44827,7.33766,77.2783,12.9055,2.26699,-0.677766,119.722
7,8.20038,7.79043,77.7944,12.9048,-0.0178564,-57.1212,117.52
7.04,7.96545,8.26064,78.3201,13.1408,5.90146,147.983,115.14
7.08,7.75025,8.7402,78.8457,13.1408,-0.00061904,-147.552,112.76
7.12,7.55334,9.2347,79.378,13.3064,4.13988,103.512,110.254
7.16,7.37707,9.74387,79.9168,13.4707,4.107,-0.821963,107.623
7.2,7.22435,10.2607,80.4557,13.4737,0.0749358,-100.802,104.991
7.24,7.08976,10.8103,81.0215,14.1445,16.7701,417.378,101.849
7.28,6.98559,11.3665,81.5874,14.1468,0.0589763,-417.777,98.707
7.32,6.91182,11.9357,82.1614,14.3495,5.06801,125.226,95.4101
7.36,6.87171,12.5163,82.7434,14.5508,5.03098,-0.925794,91.96
7.4,6.86663,13.0985,83.3256,14.5542,0.0845075,-123.662,88.5076
7.44,6.90471,13.7259,83.9541,15.713,28.9718,722.182,84.1761
7.48,6.99006,14.3486,84.5826,15.7134,0.00822286,-724.089,79.8446
7.52,7.12471,14.972,85.2204,15.9454,5.79967,144.786,75.3375
7.56,7.31167,15.5914,85.8674,16.1745,5.72886,-1.77013,70.6563
7.6,7.54857,16.1934,86.5144,16.1739,-0.0151771,-143.601,65.9746
7.64,7.84184,16.7814,87.1714,16.4266,6.31637,158.289,61.1031
7.68,8.18384,17.3423,87.8284,16.4241,-0.0624467,-159.47,56.2316
7.72,8.56632,17.8639,88.4752,16.169,-6.37647,-157.851,51.5545
7.76,8.98296,18.3452,89.1118,15.9149,-6.35338,0.577099,47.0693
7.8,9.43596,18.7924,89.7483,15.9138,-0.0276186,158.144,42.5868
7.84,9.88786,19.1748,90.3403,14.8001,-27.8414,-695.345,38.9476
7.88,10.3631,19.5279,90.9324,14.8012,0.0273769,696.72,35.3084
7.92,10.8473,19.8435,91.5103,14.4489,-8.80825,-220.891,31.9362
7.96,11.3358,20.1252,92.0743,14.0987,-8.75367,1.36466,28.8278
8,11.8389,20.3799,92.6381,14.0964,-0.0570451,217.416,25.7235
8.04,12.2916,20.5856,93.1354,12.4309,-41.6397,-1039.57,23.8812
8.08,12.7507,20.7767,93.6327,12.433,0.0535779,1042.33,22.0388
8.12,13.2055,20.9481,94.1187,12.1513,-7.0422,-177.394,20.4072
8.16,13.6548,21.103,94.5939,11.88,-6.78366,6.46329,18.9835
8.2,14.1075,21.2465,95.0689,11.8737,-0.156337,165.683,17.5624
8.24,14.5219,21.3718,95.5018,10.8227,-26.2746,-652.957,16.9403
8.28,14.9375,21.4925,95.9345,10.8187,-0.0997557,654.372,16.3181
8.32,15.349,21.6081,96.362,10.6869,-3.29612,-79.9092,15.7987
8.36,15.7561,21.7196,96.784,10.5508,-3.40131,-2.62962,15.3807
8.4,16.164,21.8281,97.2061,10.5522,0.0334849,85.8698,14.963
8.44,16.5666,21.9359,97.623,10.4217,-3.26141,-82.3724,14.6439
8.48,16.9699,22.0415,98.0398,10.4204,-0.0341003,80.6827,14.3248
8.52,17.3814,22.1461,98.4644,10.6153,4.87414,122.706,13.8594
8.56,17.8014,22.248,98.8966,10.8044,4.72669,-3.68621,13.2495
8.6,18.2225,22.3455,99.3289,10.807,0.0642367,-116.561,12.6386
8.64,18.6603,22.4404,99.7768,11.1975,9.76464,242.51,11.7293
8.68,19.0995,22.5285,100.225,11.2006,0.0772281,-242.185,10.82
8.72,19.5449,22.6103,100.678,11.3201,2.98581,72.7146,9.81965
8.76,19.9964,22.6845,101.135,11.439,2.9746,-0.280292,8.72937
8.8,20.4493,22.7502,101.593,11.4407,0.0417979,-73.3201,7.63884
8.84,20.9074,22.8069,102.054,11.5413,2.51573,61.8483,6.46987
8.88,21.3667,22.8545,102.516,11.5436,0.0556072,-61.5031,5.30091
8.92,21.8241,22.892,102.975,11.4718,-1.79538,-46.2746,4.18469
8.96,22.2794,22.9204,103.431,11.4063,-1.63667,3.96761,3.12054
9,22.735,22.9404,103.887,11.4015,-0.118985,37.9422,2.05836
9.04,23.1593,22.95,104.312,10.6082,-19.8341,-492.877,1.59751
9.08,23.5835,22.9562,104.736,10.6067,-0.0359966,494.951,1.13666
9.12,24.0026,22.9593,105.155,10.4782,-3.2124,-79.41,0.774505
9.16,24.4166,22.9606,105.569,10.3495,-3.2189,-0.162668,0.50975
9.2,24.8304,22.9599,105.983,10.3443,-0.130595,77.2077,0.248939
9.24,25.1816,22.96,106.334,8.78032,-39.0984,-974.196,1.17309
9.28,25.5328,22.9657,106.685,8.78188,0.0390788,978.438,2.09724
9.32,25.8789,22.9775,107.032,8.65809,-3.09468,-78.3438,3.11314
9.36,26.22,22.9962,107.373,8.5404,-2.94233,3.80859,4.21956
9.4,26.5605,23.0213,107.715,8.53537,-0.125631,70.4175,5.32788
9.44,26.8708,23.0547,108.027,7.80202,-18.3339,-455.208,6.99313
9.48,27.18,23.097,108.339,7.80217,0.00394791,458.447,8.65838
9.52,27.4886,23.1488,108.652,7.82166,0.487181,12.0808,10.3088
9.56,27.7962,23.2097,108.965,7.84109,0.485751,-0.0357503,11.9445
9.6,28.1021,23.2794,109.279,7.84171,0.0154023,-11.7587,13.5794
9.64,28.4173,23.3602,109.604,8.13532,7.34037,183.124,14.9921
9.68,28.7304,23.4488,109.93,8.13415,-0.0292331,-184.24,16.4049
9.72,29.0502,23.5477,110.265,8.37051,5.90889,148.453,17.6395
9.76,29.3769,23.6555,110.609,8.60075,5.75612,-3.81923,18.6984
9.8,29.7017,23.7695,110.953,8.60508,0.108266,-141.196,19.7561
9.84,30.0411,23.895,111.315,9.04683,11.0438,273.387,20.4779
9.88,30.3789,24.0249,111.677,9.04703,0.00479788,-275.974,21.1997
9.92,30.7231,24.1621,112.047,9.26294,5.39795,134.829,21.7579
9.96,31.074,24.3054,112.426,9.47712,5.35447,-1.08677,22.1547
10,31.424,24.4511,112.805,9.47712,-4.73967e-05,-133.863,22.551
10.04,31.7806,24.6,113.192,9.66113,4.60034,115.01,22.8073
10.08,32.1365,24.7505,113.578,9.66146,0.00826568,-114.802,23.0636
10.12,32.4913,24.9016,113.964,9.63972,-0.543544,-13.7952,23.3368
10.16,32.8447,25.0535,114.349,9.61786,-0.546488,-0.0736101,23.6268
10.2,33.1973,25.2071,114.733,9.61475,-0.0779568,11.7133,23.9188
10.24,33.52,25.3492,115.086,8.81506,-19.9921,-497.853,24.8173
10.28,33.8404,25.4963,115.438,8.81339,-0.0417346,498.759,25.7158
10.32,34.1485,25.644,115.78,8.54105,-6.80867,-169.174,26.821
10.36,34.4436,25.7936,116.111,8.27108,-6.74926,1.48549,28.1301
10.4,34.735,25.9497,116.441,8.26528,-0.144785,165.112,29.4434
10.44,34.9649,26.083,116.707,6.64427,-40.5253,-1009.51,31.986
10.48,35.1887,26.2264,116.973,6.64394,-0.00832743,1012.92,34.5286
10.52,35.3776,26.3593,117.204,5.77329,-21.7663,-543.948,37.7302
10.56,35.5308,26.4825,117.4,4.91715,-21.4035,9.06984,41.5817
10.6,35.6753,26.6155,117.597,4.9089,-0.206294,529.929,45.4376
10.64,35.764,26.7122,117.728,3.27896,-40.7485,-1013.55,50.5287
10.68,35.8437,26.8164,117.859,3.2806,0.0410878,1019.74,55.6198
10.72,35.9132,26.9284,117.991,3.29567,0.376705,8.39044,60.6979
10.76,35.9718,27.0472,118.124,3.31165,0.399325,0.56549,65.7633
10.8,36.0197,27.171,118.256,3.31913,0.187116,-5.30523,70.8244
10.84,36.0754,27.3585,118.452,4.88983,39.2674,977.007,74.696
10.88,36.1183,27.5493,118.647,4.88863,-0.029788,-982.429,78.5676
10.92,36.1545,27.7793,118.88,5.82108,23.3112,583.526,81.734
10.96,36.1851,28.047,119.15,6.73628,22.8799,-10.7848,84.2053
11,36.204,28.3161,119.419,6.74364,0.184007,-567.396,86.6722
11.04,36.2157,28.6484,119.752,8.31366,39.2504,976.661,87.9495
11.08,36.2201,28.981,120.085,8.31534,0.0420928,-980.208,89.2268
11.12,36.2178,29.3306,120.434,8.7405,10.6289,264.671,90.1812
11.16,36.2116,29.6969,120.801,9.15886,10.4592,-4.24412,90.8176
11.2,36.2013,30.0632,121.167,9.16133,0.0615475,-259.941,91.454
11.24,36.1919,30.4283,121.532,9.12917,-0.803805,-21.6338,92.1126
11.28,36.1781,30.7932,121.897,9.13045,0.03188,20.8921,92.7712
11.32,36.161,31.1579,122.263,9.12714,-0.082731,-2.86528,93.4335
11.36,36.1405,31.5221,122.627,9.11974,-0.184853,-2.55304,94.0995
11.4,36.1158,31.886,122.992,9.11818,-0.0390638,3.64472,94.7685
11.44,36.0866,32.2068,123.314,8.05227,-26.6477,-665.216,96.2438
11.48,36.0492,32.5267,123.636,8.05167,-0.0150588,665.817,97.7192
11.52,36.0056,32.8275,123.94,7.59806,-11.3402,-283.128,99.5396
11.56,35.9541,33.1087,124.226,7.14728,-11.2697,1.76263,101.7
11.6,35.8919,33.3877,124.512,7.1457,-0.0393583,280.758,103.862
11.64,35.8253,33.6368,124.77,6.44788,-17.4456,-435.156,106.554
11.68,35.747,33.8824,125.028,6.44486,-0.0753289,434.257,109.247
11.72,35.6613,34.1125,125.273,6.13899,-7.64681,-189.287,112.171
11.76,35.5679,34.3266,125.507,5.83816,-7.52078,3.15076,115.324
11.8,35.4628,34.535,125.74,5.83379,-0.109315,185.287,118.479
11.84,35.3533,34.7238,125.958,5.45697,-9.42052,-232.78,121.92
11.88,35.2326,34.9056,126.177,5.45674,-0.00557388,235.374,125.362
11.92,35.1021,35.0784,126.393,5.41392,-1.07073,-26.6288,128.836
11.96,34.9622,35.2417,126.608,5.37383,-1.00222,1.71266,132.34
12,34.8125,35.3961,126.823,5.37679,0.0741448,26.9091,135.843
12.04,34.6491,35.5453,127.044,5.53206,3.88176,95.1903,139.227
12.08,34.477,35.6845,127.266,5.53372,0.0414496,-96.0077,142.611
12.12,34.292,35.817,127.493,5.6893,3.88939,96.1985,145.876
12.16,34.0949,35.9424,127.727,5.84002,3.76817,-3.03046,149.026
12.2,33.891,36.0567,127.961,5.84316,0.0784854,-92.2422,152.175
12.24,33.6697,36.1659,128.207,6.17004,8.17194,202.336,155.076
12.28,33.4431,36.2638,128.454,6.17173,0.0422782,-203.242,157.977
12.32,33.2064,36.3523,128.707,6.31666,3.62318,89.5226,160.767
12.36,32.9604,36.4315,128.965,6.46051,3.59628,-0.672618,163.448
12.4,32.7109,36.4989,129.224,6.46101,0.0126177,-89.5915,166.128
12.44,32.4495,36.5572,129.492,6.6965,5.88705,146.861,168.631
12.48,32.1858,36.6039,129.759,6.69455,-0.0487258,-148.394,171.135
