"time","x","y","position","velocity","acceleration","jerk","heading"
0,3,-0.025,0,0,0,0,0
0.04,2.90743,-0.0246404,0.0925669,2.31417,57.8543,1446.36,-0.441063
0.08,2.81487,-0.0235715,0.185138,2.31428,0.00255793,-1446.29,-0.882126
0.12,2.72232,-0.0217934,0.277707,2.31423,-0.00112439,-0.092058,-1.32319
0.16,2.62979,-0.019296,0.370269,2.31404,-0.004834,-0.09274,-1.76425
0.2,2.53728,-0.0160895,0.462837,2.31421,0.00429136,0.228134,-2.20532
0.24,2.44479,-0.0121739,0.555405,2.31421,-7.8742e-05,-0.109253,-2.64638
0.28,2.35233,-0.00754922,0.647978,2.31432,0.00278876,0.0716875,-3.08744
0.32,2.25992,-0.00220553,0.74055,2.31429,-0.000553384,-0.0835535,-3.5285
0.36,2.16755,0.0038471,0.833115,2.31413,-0.00423065,-0.0919315,-3.96957
0.4,2.07523,0.0106085,0.925686,2.31428,0.00389102,0.203042,-4.41063
0.44,1.98297,0.0180887,1.01825,2.31407,-0.00519222,-0.227081,-4.85169
0.48,1.89076,0.0262675,1.11082,2.31419,0.00291015,0.202559,-5.29276
0.52,1.79862,0.0351648,1.20338,2.31418,-0.00031778,-0.0806982,-5.73382
0.56,1.70655,0.0447704,1.29595,2.31426,0.00201621,0.0583497,-6.17488
0.6,1.54095,0.0638498,1.46265,4.16735,46.3273,1158.13,-6.96915
0.64,1.31939,0.0930192,1.68613,5.58696,35.4902,-270.929,-8.03397
0.68,1.0984,0.126313,1.9096,5.58686,-0.00239019,-887.314,-9.09879
0.72,0.87807,0.163699,2.13308,5.5871,0.00589158,0.207044,-10.1636
0.76,0.65848,0.205172,2.35656,5.5868,-0.00740048,-0.332302,-11.2284
0.8,0.439694,0.250721,2.58003,5.58694,0.00333784,0.268458,-12.2932
0.84,0.183067,0.309601,2.84333,6.58237,24.8859,622.064,-13.5478
0.88,-0.0992198,0.381245,3.13457,7.28091,17.4635,-185.56,-14.9355
0.92,-0.379689,0.459713,3.42581,7.28099,0.00184956,-436.541,-16.3232
0.96,-0.658175,0.544944,3.71704,7.28091,-0.00185102,-0.0925144,-17.7109
1,-0.934517,0.636895,4.00828,7.28095,0.000957857,0.0702219,-19.0986
1.04,-1.2361,0.745842,4.32894,8.01643,18.3871,459.652,-20.6265
1.08,-1.53467,0.862793,4.6496,8.01646,0.000543659,-459.663,-22.1544
1.12,-1.83001,0.987665,4.97025,8.01647,0.0002911,-0.00631396,-23.6823
1.16,-2.12192,1.12037,5.29091,8.01632,-0.00372653,-0.100441,-25.2101
1.2,-2.41019,1.26079,5.61156,8.01643,0.00273705,0.16159,-26.738
1.24,-2.69461,1.40887,5.93222,8.01646,0.000905994,-0.0457765,-28.2659
1.28,-2.97498,1.56448,6.25288,8.0164,-0.00152165,-0.0606911,-29.7938
1.32,-3.2511,1.7275,6.57353,8.01635,-0.00125201,0.00674104,-31.3217
1.36,-3.52279,1.89783,6.89419,8.01654,0.00457084,0.145571,-32.8496
1.4,-3.78982,2.07534,7.21485,8.0164,-0.00326415,-0.195875,-34.3775
1.44,-4.05204,2.25991,7.53551,8.01645,0.00120174,0.111647,-35.9054
1.48,-4.30923,2.4514,7.85616,8.01633,-0.00310377,-0.107638,-37.4332
1.52,-4.56124,2.64969,8.17682,8.01658,0.00640864,0.23781,-38.9611
1.56,-4.80786,2.85462,8.49748,8.01637,-0.0052858,-0.292361,-40.489
1.6,-5.04893,3.06605,8.81813,8.01636,-0.000414486,0.121783,-42.0169
1.64,-5.28428,3.28385,9.13879,8.0165,0.00348604,0.0975132,-43.5448
1.68,-5.51374,3.50784,9.45945,8.01651,0.000309271,-0.0794193,-45.0727
1.72,-5.73714,3.73786,9.78011,8.01636,-0.00376522,-0.101862,-46.6006
1.76,-5.95434,3.97376,10.1008,8.0164,0.00097723,0.118561,-48.1285
1.8,-6.16516,4.21536,10.4214,8.01634,-0.00132425,-0.057537,-49.6563
1.84,-6.36946,4.46251,10.7421,8.01657,0.00576759,0.177296,-51.1842
1.88,-6.5671,4.71501,11.0627,8.0163,-0.00690346,-0.316776,-52.7121
1.92,-6.75795,4.9727,11.3834,8.01653,0.00583145,0.318373,-54.24
1.96,-6.94186,5.23538,11.7041,8.01643,-0.00249432,-0.208144,-55.7679
2,-7.11869,5.50287,12.0247,8.01644,0.000303265,0.0699396,-57.2958
2.04,-7.28832,5.77498,12.3454,8.01643,-0.000423589,-0.0181713,-58.8237
2.08,-7.45065,6.05151,12.666,8.01644,0.000213295,0.0159221,-60.3516
2.12,-7.60554,6.33227,12.9867,8.0162,-0.00592875,-0.153551,-61.8794
2.16,-7.75289,6.61707,13.3073,8.01656,0.00913584,0.376615,-63.4073
2.2,-7.89259,6.9057,13.628,8.01649,-0.001862,-0.274946,-64.9352
2.24,-8.02456,7.19794,13.9486,8.01631,-0.00453496,-0.0668241,-66.4631
2.28,-8.14867,7.4936,14.2693,8.01651,0.00503261,0.239189,-67.991
2.32,-8.26487,7.79247,14.59,8.01644,-0.0016835,-0.167903,-69.5189
2.36,-8.37306,8.09432,14.9106,8.01641,-0.000697924,0.0246394,-71.0468
2.4,-8.47315,8.39896,15.2313,8.01639,-0.000623987,0.00184841,-72.5747
2.44,-8.56508,8.70615,15.5519,8.01639,-2.54117e-05,0.0149644,-74.1025
2.48,-8.6488,9.01569,15.8726,8.01648,0.00231246,0.0584469,-75.6304
2.52,-8.72423,9.32735,16.1932,8.01646,-0.000565642,-0.0719526,-77.1583
2.56,-8.79133,9.64095,16.5139,8.01743,0.0243434,0.622725,-78.6862
2.6,-8.85004,9.95615,16.8346,8.01556,-0.0468672,-1.78026,-80.2141
2.64,-8.90031,10.2728,17.1552,8.01584,0.00714082,1.3502,-81.742
2.68,-8.94214,10.5908,17.4759,8.01786,0.0503537,1.08032,-83.2699
2.72,-8.97547,10.9097,17.7966,8.01663,-0.0305925,-2.02365,-84.7978
2.76,-9.00028,11.2293,18.1172,8.01449,-0.0537084,-0.577896,-86.3256
2.8,-9.01657,11.5496,18.4378,8.01687,0.0595593,2.83169,-87.8535
2.84,-9.0243,11.8701,18.7585,8.01587,-0.0249386,-2.11245,-89.3814
2.88,-9.02349,12.1908,19.0791,8.01664,0.0193215,1.1065,-90.9093
2.92,-9.01412,12.5113,19.3998,8.01668,0.00101301,-0.457712,-92.4372
2.96,-8.99622,12.8315,19.7204,8.01598,-0.017488,-0.462524,-93.9651
3,-8.96978,13.1511,20.0411,8.01705,0.0267766,1.10661,-95.493
3.04,-8.93484,13.4698,20.3618,8.01734,0.00715866,-0.490449,-97.0209
3.08,-8.8914,13.7876,20.6825,8.01679,-0.0137704,-0.523227,-98.5487
3.12,-8.8395,14.104,21.0031,8.01625,-0.0133928,0.00943979,-100.077
3.16,-8.77919,14.4189,21.3238,8.01634,0.00224356,0.39091,-101.605
3.2,-8.71052,14.7321,21.6444,8.01467,-0.0418362,-1.10199,-103.132
3.24,-8.63351,15.0434,21.9651,8.01735,0.0669139,2.71875,-104.66
3.28,-8.54823,15.3524,22.2857,8.0154,-0.048715,-2.89072,-106.188
3.32,-8.45473,15.6592,22.6064,8.01738,0.0494848,2.455,-107.716
3.36,-8.35308,15.9633,22.927,8.01623,-0.0286905,-1.95438,-109.244
3.4,-8.24337,16.2646,23.2477,8.01635,0.00309366,0.794604,-110.772
3.44,-8.12566,16.563,23.5684,8.01803,0.0419212,0.970687,-112.3
3.48,-8.00005,16.858,23.8891,8.01626,-0.0442416,-2.15407,-113.828
3.52,-7.86659,17.1495,24.2097,8.01609,-0.0042527,0.999724,-115.356
3.56,-7.72545,17.4374,24.5303,8.01555,-0.0135692,-0.232912,-116.883
3.6,-7.57665,17.7215,24.851,8.01686,0.0328182,1.15968,-118.411
3.64,-7.42034,18.0014,25.1716,8.01555,-0.0327203,-1.63846,-119.939
3.68,-7.25661,18.2772,25.4923,8.01764,0.0522169,2.12343,-121.467
3.72,-7.08559,18.5484,25.813,8.01626,-0.034597,-2.17035,-122.995
3.76,-6.90739,18.815,26.1336,8.01612,-0.00342909,0.779198,-124.523
3.8,-6.72216,19.0767,26.4543,8.0165,0.00947998,0.322727,-126.051
3.84,-6.53001,19.3334,26.7749,8.01591,-0.0147942,-0.606853,-127.579
3.88,-6.33111,19.5849,27.0956,8.01674,0.0209039,0.892452,-129.106
3.92,-6.12556,19.8311,27.4163,8.01657,-0.0044187,-0.633066,-130.634
3.96,-5.9135,20.0716,27.7369,8.01618,-0.00979439,-0.134392,-132.162
4,-5.69511,20.3063,28.0575,8.01605,-0.00321858,0.164395,-133.69
4.04,-5.47054,20.5352,28.3782,8.0163,0.00627994,0.237463,-135.218
4.08,-5.23994,20.7581,28.6989,8.01725,0.0238712,0.43978,-136.746
4.12,-5.00349,20.9747,29.0195,8.01648,-0.0192146,-1.07714,-138.274
4.16,-4.76134,21.1849,29.3402,8.01611,-0.00936025,0.246359,-139.802
4.2,-4.51368,21.3886,29.6609,8.01732,0.0302984,0.991467,-141.33
4.24,-4.26071,21.5855,29.9815,8.0146,-0.0680249,-2.45808,-142.857
4.28,-4.00255,21.7758,30.3022,8.01737,0.0691395,3.42911,-144.385
4.32,-3.73939,21.959,30.6228,8.01601,-0.033875,-2.57536,-145.913
4.36,-3.47145,22.1352,30.9435,8.01748,0.0367044,1.76448,-147.441
4.4,-3.1989,22.3041,31.2641,8.01596,-0.0378923,-1.86492,-148.969
4.44,-2.92195,22.4657,31.5848,8.01707,0.0276029,1.63738,-150.497
4.48,-2.64079,22.6199,31.9055,8.01665,-0.0104859,-0.952219,-152.025
4.52,-2.35561,22.7665,32.2261,8.01605,-0.0149624,-0.111912,-153.553
4.56,-2.06663,22.9055,32.5468,8.01639,0.00857342,0.588394,-155.081
4.6,-1.7741,23.0367,32.8674,8.01518,-0.0303851,-0.973964,-156.608
4.64,-1.47812,23.1601,33.1881,8.01722,0.0509985,2.03459,-158.136
4.68,-1.18811,23.2721,33.499,7.772,-6.1304,-154.535,-159.618
4.72,-0.913933,23.3702,33.7901,7.2797,-12.3076,-154.429,-161.005
4.76,-0.637411,23.4617,34.0814,7.28177,0.0518399,308.985,-162.393
4.8,-0.358755,23.5464,34.3727,7.28124,-0.0133461,-1.62965,-163.781
4.84,-0.0781797,23.6243,34.6639,7.27973,-0.0377037,-0.608939,-165.168
4.88,0.155115,23.6836,34.9046,6.01793,-31.5451,-787.685,-166.315
4.92,0.372736,23.7345,35.1281,5.58733,-10.7649,519.504,-167.38
4.96,0.591267,23.7813,35.3515,5.58701,-0.00806828,268.921,-168.445
5,0.810637,23.824,35.575,5.58742,0.0102197,0.4572,-169.51
5.04,1.03076,23.8627,35.7985,5.58707,-0.0085846,-0.470108,-170.575
5.08,1.2515,23.8972,36.022,5.5858,-0.0318946,-0.582749,-171.639
5.12,1.37338,23.9145,36.1451,3.07748,-62.708,-1566.9,-172.226
5.16,1.46514,23.9267,36.2376,2.31408,-19.0848,1090.58,-172.667
5.2,1.55699,23.9381,36.3302,2.31397,-0.00272866,477.053,-173.108
5.24,1.64893,23.9488,36.4227,2.31416,0.00471059,0.185981,-173.549
5.28,1.74095,23.9589,36.5153,2.31401,-0.0039016,-0.215305,-173.99
5.32,1.83304,23.9682,36.6079,2.31419,0.00459207,0.212342,-174.431
5.36,1.9252,23.9769,36.7004,2.31422,0.000654409,-0.0984416,-174.872
5.4,2.01743,23.9848,36.793,2.31412,-0.00243222,-0.0771658,-175.313
5.44,2.10971,23.992,36.8856,2.3141,-0.000567536,0.0466172,-175.754
5.48,2.20205,23.9985,36.9781,2.31416,0.0016999,0.0566859,-176.195
5.52,2.29444,24.0043,37.0707,2.31417,4.72679e-05,-0.0413158,-176.636
5.56,2.38685,24.0094,37.1633,2.31393,-0.00578886,-0.145903,-177.077
5.6,2.47932,24.0138,37.2558,2.31429,0.00895318,0.368551,-177.518
5.64,2.57182,24.0174,37.3484,2.31414,-0.00374904,-0.317555,-177.959
