"time","x","y","position","velocity","acceleration","jerk","heading"
0,2.97068,17.75,0,0,0,0,0
0.02,2.97558,17.75,0.0049,0.245,12.25,612.5,0
0.04,2.98048,17.75,0.0098,0.245,1.11022e-12,-612.5,0
0.06,2.99243,17.75,0.02175,0.5975,17.625,881.25,0
0.08,3.00917,17.75,0.03849,0.837,11.975,-282.5,0
0.1,3.03068,17.75,0.06,1.0755,11.925,-2.5,0
0.12,3.05715,17.75,0.08647,1.3235,12.4,23.75,0
0.14,3.08832,17.75,0.11764,1.5585,11.75,-32.5,0
0.16,3.12432,17.75,0.15364,1.8,12.075,16.25,0
0.18,3.16511,17.75,0.19443,2.0395,11.975,-5,0
0.2,3.21068,17.75,0.24,2.2785,11.95,-1.25,0
0.22,3.26108,17.75,0.2904,2.52,12.075,6.25,0
0.24,3.3163,17.75,0.34562,2.761,12.05,-1.25,0
0.26,3.3763,17.75,0.40562,3,11.95,-5,0
0.28,3.44108,17.75,0.4704,3.239,11.95,-4.55636e-11,0
0.3,3.51068,17.75,0.54,3.48,12.05,5,0
0.32,3.58509,17.75,0.61441,3.7205,12.025,-1.25,0
0.34,3.66429,17.75,0.69361,3.96,11.975,-2.5,0
0.36,3.74829,17.75,0.77761,4.2,12,1.25,0
0.38,3.83709,17.75,0.86641,4.44,12,-1.1493e-10,0
0.4,3.93068,17.75,0.96,4.6795,11.975,-1.25,0
0.42,4.02908,17.75,1.0584,4.92,12.025,2.5,0
0.44,4.13228,17.75,1.1616,5.16,12,-1.25,0
0.46,4.24028,17.75,1.2696,5.4,12,3.10862e-10,0
0.48,4.35308,17.75,1.3824,5.64,12,-1.82609e-10,0
0.5,4.47068,17.75,1.5,5.88,12,-7.94032e-11,0
0.52,4.59308,17.75,1.6224,6.12,12,1.5099e-10,0
0.54,4.72028,17.75,1.7496,6.36,12,0,0
0.56,4.85228,17.75,1.8816,6.6,12,-2.22045e-12,0
0.58,4.98908,17.75,2.0184,6.84,12,-9.9476e-12,0
0.6,5.13068,17.75,2.16,7.08,12,-1.94333e-10,0
0.62,5.27708,17.75,2.3064,7.32,12,2.06501e-10,0
0.64,5.42828,17.75,2.4576,7.56,12,-2.22045e-12,0
0.66,5.58428,17.75,2.6136,7.8,12,-1.08802e-10,0
0.68,5.74508,17.75,2.7744,8.04,12,1.11022e-10,0
0.7,5.91068,17.75,2.94,8.28,12,1.18838e-10,0
0.72,6.08108,17.75,3.1104,8.52,12,-3.45324e-10,0
0.74,6.25628,17.75,3.2856,8.76,12,2.26485e-10,0
0.76,6.43628,17.75,3.4656,9,12,-1.11022e-10,0
0.78,6.62108,17.75,3.6504,9.24,12,1.06581e-10,0
0.8,6.81068,17.75,3.84,9.48,12,-1.06581e-10,0
0.82,7.00508,17.75,4.0344,9.72,12,3.63087e-10,0
0.84,7.20428,17.75,4.2336,9.96,12,-6.11777e-10,0
0.86,7.40828,17.75,4.4376,10.2,12,4.70735e-10,0
0.88,7.61708,17.75,4.6464,10.44,12,-3.33067e-10,0
0.9,7.83068,17.75,4.86,10.68,12,3.33067e-10,0
0.92,8.04908,17.75,5.0784,10.92,12,-2.22045e-10,0
0.94,8.27228,17.75,5.3016,11.16,12,2.65388e-10,0
0.96,8.50028,17.75,5.5296,11.4,12,-4.20819e-10,0
0.98,8.73308,17.75,5.7624,11.64,12,1.55431e-10,0
1,8.97068,17.75,6,11.88,12,2.22045e-10,0
1.02,9.21068,17.75,6.24,12,6,-300,0
1.04,9.45068,17.75,6.48,12,0,-300,0
1.06,9.69068,17.75,6.72,12,0,0,0
1.08,9.93068,17.75,6.96,12,0,0,0
1.1,10.1707,17.75,7.20002,12.001,0.05,2.5,0
1.12,10.4107,17.75,7.44002,12,-0.05,-5,0
1.14,10.6507,17.75,7.68002,12,6.66134e-12,2.5,0
1.16,10.8907,17.75,7.92002,12,-6.66134e-12,-6.66134e-10,0
1.18,11.1307,17.75,8.16002,12,-4.44089e-12,1.11022e-10,0
1.2,11.3707,17.75,8.40002,12,4.44089e-12,4.44089e-10,0
1.22,11.6107,17.75,8.64002,12,0,-2.22045e-10,0
1.24,11.8507,17.75,8.88002,12,0,0,0
1.26,12.0907,17.75,9.12002,12,0,0,0
1.28,12.3307,17.75,9.36002,12,0,0,0
1.3,12.5707,17.75,9.60002,12,0,0,0
1.32,12.8107,17.75,9.84002,12,0,0,0
1.34,13.0507,17.75,10.08,12,0,0,0
1.36,13.2907,17.75,10.32,12,-4.44089e-12,-2.22045e-10,0
1.38,13.5307,17.75,10.56,12,1.11022e-11,7.77156e-10,0
1.4,13.7707,17.75,10.8,12,-6.66134e-12,-8.88178e-10,0
1.42,14.0107,17.75,11.04,12,0,3.33067e-10,0
1.44,14.2507,17.75,11.28,12,0,0,0
1.46,14.4907,17.75,11.52,12,0,0,0
1.48,14.7307,17.75,11.76,12,0,0,0
1.5,14.9707,17.75,12,12,0,0,0
1.52,15.2107,17.75,12.24,12,-4.44089e-12,-2.22045e-10,0
1.54,15.4507,17.75,12.48,12,4.44089e-12,4.44089e-10,0
1.56,15.6907,17.75,12.72,12,0,-2.22045e-10,0
1.58,15.9307,17.75,12.96,12,0,0,0
1.6,16.1707,17.75,13.2,12,0,0,0
1.62,16.4107,17.75,13.44,12,-4.44089e-12,-2.22045e-10,0
1.64,16.6507,17.75,13.68,12,1.55431e-11,9.99201e-10,0
1.66,16.8907,17.75,13.92,12,-1.55431e-11,-1.55431e-09,0
1.68,17.1307,17.75,14.16,12,8.88178e-12,1.22125e-09,0
1.7,17.3707,17.75,14.4,12,-8.88178e-12,-8.88178e-10,0
1.72,17.6107,17.75,14.64,12,8.88178e-12,8.88178e-10,0
1.74,17.8507,17.75,14.88,12,-8.88178e-12,-8.88178e-10,0
1.76,18.0907,17.75,15.12,12,0,4.44089e-10,0
1.78,18.3307,17.75,15.36,12,8.88178e-12,4.44089e-10,0
1.8,18.5707,17.75,15.6,12,-8.88178e-12,-8.88178e-10,0
1.82,18.8107,17.75,15.84,12,8.88178e-12,8.88178e-10,0
1.84,19.0507,17.75,16.08,12,-8.88178e-12,-8.88178e-10,0
1.86,19.2907,17.75,16.32,12,8.88178e-12,8.88178e-10,0
1.88,19.5307,17.75,16.56,12,-2.22045e-12,-5.55112e-10,0
1.9,19.7707,17.75,16.8,12,2.22045e-12,2.22045e-10,0
1.92,20.0107,17.75,17.04,12,-8.88178e-12,-5.55112e-10,0
1.94,20.2507,17.75,17.28,12,0,4.44089e-10,0
1.96,20.4907,17.75,17.52,12,8.88178e-12,4.44089e-10,0
1.98,20.7307,17.75,17.76,12,-8.88178e-12,-8.88178e-10,0
2,20.9707,17.75,18,12,8.88178e-12,8.88178e-10,0
2.02,21.2107,17.75,18.24,12,-8.88178e-12,-8.88178e-10,0
2.04,21.4507,17.75,18.48,12,8.88178e-12,8.88178e-10,0
2.06,21.6907,17.75,18.72,12,-8.88178e-12,-8.88178e-10,0
2.08,21.9307,17.75,18.96,12,8.88178e-12,8.88178e-10,0
2.1,22.1707,17.75,19.2,12,-8.88178e-12,-8.88178e-10,0
2.12,22.4107,17.75,19.44,12,0,4.44089e-10,0
2.14,22.6507,17.75,19.68,12,8.88178e-12,4.44089e-10,0
2.16,22.8907,17.75,19.92,12,-8.88178e-12,-8.88178e-10,0
2.18,23.1307,17.75,20.16,12,8.88178e-12,8.88178e-10,0
2.2,23.3707,17.75,20.4,12,-8.88178e-12,-8.88178e-10,0
2.22,23.6107,17.75,20.64,12,8.88178e-12,8.88178e-10,0
2.24,23.8507,17.75,20.88,12,-8.88178e-12,-8.88178e-10,0
2.26,24.0907,17.75,21.12,12,1.33227e-11,1.11022e-09,0
2.28,24.3307,17.75,21.36,12,-4.44089e-12,-8.88178e-10,0
2.3,24.5707,17.75,21.6,12,-8.88178e-12,-2.22045e-10,0
2.32,24.8107,17.75,21.84,12,8.88178e-12,8.88178e-10,0
2.34,25.0507,17.75,22.08,12,-8.88178e-12,-8.88178e-10,0
2.36,25.2907,17.75,22.32,12,8.88178e-12,8.88178e-10,0
2.38,25.5307,17.75,22.56,12,-8.88178e-12,-8.88178e-10,0
2.4,25.7707,17.75,22.8,12,8.88178e-12,8.88178e-10,0
2.42,26.0107,17.75,23.04,12,-8.88178e-12,-8.88178e-10,0
2.44,26.2507,17.75,23.28,12,0,4.44089e-10,0
2.46,26.4907,17.75,23.52,12,8.88178e-12,4.44089e-10,0
2.48,26.7307,17.75,23.76,12,-8.88178e-12,-8.88178e-10,0
2.5,26.9707,17.75,24,12,8.88178e-12,8.88178e-10,0
2.52,27.2107,17.75,24.24,12,-8.88178e-12,-8.88178e-10,0
2.54,27.4507,17.75,24.48,12,8.88178e-12,8.88178e-10,0
2.56,27.6907,17.75,24.72,12,-8.88178e-12,-8.88178e-10,0
2.58,27.9307,17.75,24.96,12,8.88178e-12,8.88178e-10,0
2.6,28.1707,17.75,25.2,12,-8.88178e-12,-8.88178e-10,0
2.62,28.4107,17.75,25.44,12,0,4.44089e-10,0
2.64,28.6507,17.75,25.68,12,8.88178e-12,4.44089e-10,0
2.66,28.8907,17.75,25.92,12,-8.88178e-12,-8.88178e-10,0
2.68,29.1307,17.75,26.16,12,8.88178e-12,8.88178e-10,0
2.7,29.3707,17.75,26.4,12,-8.88178e-12,-8.88178e-10,0
2.72,29.6107,17.75,26.64,12,8.88178e-12,8.88178e-10,0
2.74,29.8507,17.75,26.88,12,-8.88178e-12,-8.88178e-10,0
2.76,30.0907,17.75,27.12,12,1.33227e-11,1.11022e-09,0
2.78,30.3307,17.75,27.36,12,-4.44089e-12,-8.88178e-10,0
2.8,30.5707,17.75,27.6,12,-8.88178e-12,-2.22045e-10,0
2.82,30.8107,17.75,27.84,12,8.88178e-12,8.88178e-10,0
2.84,31.0507,17.75,28.08,12,-8.88178e-12,-8.88178e-10,0
2.86,31.2907,17.75,28.32,12,8.88178e-12,8.88178e-10,0
2.88,31.5307,17.75,28.56,12,-8.88178e-12,-8.88178e-10,0
2.9,31.7707,17.75,28.8,12,8.88178e-12,8.88178e-10,0
2.92,32.0107,17.75,29.04,12,-8.88178e-12,-8.88178e-10,0
2.94,32.2507,17.75,29.28,12,8.88178e-12,8.88178e-10,0
2.96,32.4907,17.75,29.52,12,-1.77636e-11,-1.33227e-09,0
2.98,32.7307,17.75,29.76,12,1.77636e-11,1.77636e-09,0
3,32.9707,17.75,30,12,0,-8.88178e-10,0
3.02,33.2107,17.75,30.24,12,0,0,0
3.04,33.4507,17.75,30.48,12,-1.77636e-11,-8.88178e-10,0
3.06,33.6907,17.75,30.72,12,1.77636e-11,1.77636e-09,0
3.08,33.9307,17.75,30.96,12,0,-8.88178e-10,0
3.1,34.1707,17.75,31.2,12,-1.77636e-11,-8.88178e-10,0
3.12,34.4107,17.75,31.44,12,1.77636e-11,1.77636e-09,0
3.14,34.6507,17.75,31.68,12,0,-8.88178e-10,0
3.16,34.8907,17.75,31.92,12,0,0,0
3.18,35.1307,17.75,32.16,12,-1.77636e-11,-8.88178e-10,0
3.2,35.3707,17.75,32.4,12,1.77636e-11,1.77636e-09,0
3.22,35.6107,17.75,32.64,12,0,-8.88178e-10,0
3.24,35.8507,17.75,32.88,12,0,0,0
3.26,36.0907,17.75,33.12,12,-4.44089e-12,-2.22045e-10,0
3.28,36.3307,17.75,33.36,12,4.44089e-12,4.44089e-10,0
3.3,36.5707,17.75,33.6,12,0,-2.22045e-10,0
3.32,36.8107,17.75,33.84,12,-1.77636e-11,-8.88178e-10,0
3.34,37.0507,17.75,34.08,12,1.77636e-11,1.77636e-09,0
3.36,37.2907,17.75,34.32,12,0,-8.88178e-10,0
3.38,37.5307,17.75,34.56,12,0,0,0
3.4,37.7707,17.75,34.8,12,-1.77636e-11,-8.88178e-10,0
3.42,38.0107,17.75,35.04,12,1.77636e-11,1.77636e-09,0
3.44,38.2507,17.75,35.28,12,0,-8.88178e-10,0
3.46,38.4907,17.75,35.52,12,-1.77636e-11,-8.88178e-10,0
3.48,38.7307,17.75,35.76,12,1.77636e-11,1.77636e-09,0
3.5,38.9707,17.75,36,12,0,-8.88178e-10,0
3.52,39.2107,17.75,36.24,12,0,0,0
3.54,39.4507,17.75,36.48,12,-1.77636e-11,-8.88178e-10,0
3.56,39.6907,17.75,36.72,12,1.77636e-11,1.77636e-09,0
3.58,39.9307,17.75,36.96,12,0,-8.88178e-10,0
3.6,40.1707,17.75,37.2,12,-1.77636e-11,-8.88178e-10,0
3.62,40.4107,17.75,37.44,12,1.77636e-11,1.77636e-09,0
3.64,40.6507,17.75,37.68,12,0,-8.88178e-10,0
3.66,40.8907,17.75,37.92,12,0,0,0
3.68,41.1307,17.75,38.16,12,-1.77636e-11,-8.88178e-10,0
3.7,41.3707,17.75,38.4,12,1.77636e-11,1.77636e-09,0
3.72,41.6107,17.75,38.64,12,0,-8.88178e-10,0
3.74,41.8507,17.75,38.88,12,0,0,0
3.76,42.0907,17.75,39.12,12,-4.44089e-12,-2.22045e-10,0
3.78,42.3307,17.75,39.36,12,4.44089e-12,4.44089e-10,0
3.8,42.5707,17.75,39.6,12,0,-2.22045e-10,0
3.82,42.8107,17.75,39.84,12,-1.77636e-11,-8.88178e-10,0
3.84,43.0507,17.75,40.08,12,1.77636e-11,1.77636e-09,0
3.86,43.2907,17.75,40.32,12,0,-8.88178e-10,0
3.88,43.5307,17.75,40.56,12,0,0,0
3.9,43.7707,17.75,40.8,12,-1.77636e-11,-8.88178e-10,0
3.92,44.0107,17.75,41.04,12,1.77636e-11,1.77636e-09,0
3.94,44.2507,17.75,41.28,12,0,-8.88178e-10,0
3.96,44.4907,17.75,41.52,12,-1.77636e-11,-8.88178e-10,0
3.98,44.7307,17.75,41.76,12,1.77636e-11,1.77636e-09,0
4,44.9707,17.75,42,12,0,-8.88178e-10,0
4.02,45.2087,17.75,42.238,11.9,-5,-250,0
4.04,45.4419,17.75,42.4712,11.66,-12,-350,0
4.06,45.6703,17.75,42.6996,11.42,-12,3.45501e-09,0
4.08,45.8939,17.75,42.9232,11.18,-12,-2.5091e-09,0
4.1,46.1127,17.75,43.142,10.94,-12,6.75016e-10,0
4.12,46.3267,17.75,43.356,10.7,-12,2.66454e-10,0
4.14,46.5359,17.75,43.5652,10.46,-12,-3.15303e-10,0
4.16,46.7403,17.75,43.7696,10.22,-12,-5.24025e-10,0
4.18,46.9399,17.75,43.9692,9.98,-12,2.24709e-09,0
4.2,47.1347,17.75,44.164,9.74,-12,-3.08198e-09,0
4.22,47.3247,17.75,44.354,9.5,-12,2.14051e-09,0
4.24,47.5099,17.75,44.5392,9.26,-12,-1.1946e-09,0
4.26,47.6903,17.75,44.7196,9.02,-12,1.13687e-09,0
4.28,47.8659,17.75,44.8952,8.78,-12,-1.08358e-09,0
4.3,48.0367,17.75,45.066,8.54,-12,1.03029e-09,0
4.32,48.2027,17.75,45.232,8.3,-12,-1.86517e-09,0
4.34,48.3639,17.75,45.3932,8.06,-12,2.7045e-09,0
4.36,48.5203,17.75,45.5496,7.82,-12,-2.65343e-09,0
4.38,48.6719,17.75,45.7012,7.58,-12,2.59792e-09,0
4.4,48.8187,17.75,45.848,7.34,-12,-2.54463e-09,0
4.42,48.9607,17.75,45.99,7.1,-12,2.49134e-09,0
4.44,49.0979,17.75,46.1272,6.86,-12,-2.43583e-09,0
4.46,49.2303,17.75,46.2596,6.62,-12,1.49436e-09,0
4.48,49.3579,17.75,46.3872,6.38,-12,-5.55112e-10,0
4.5,49.4807,17.75,46.51,6.14,-12,5.01821e-10,0
4.52,49.5987,17.75,46.628,5.9,-12,1.82077e-10,0
4.54,49.7119,17.75,46.7412,5.66,-12,-1.49214e-09,0
4.56,49.8203,17.75,46.8496,5.42,-12,2.11831e-09,0
4.58,49.9239,17.75,46.9532,5.18,-12,-2.06501e-09,0
4.6,50.0227,17.75,47.052,4.94,-12,1.12577e-09,0
4.62,50.1167,17.75,47.146,4.7,-12,-1.84297e-10,0
4.64,50.2059,17.75,47.2352,4.46,-12,1.28786e-10,0
4.66,50.2903,17.75,47.3196,4.22,-12,-7.54952e-11,0
4.68,50.3699,17.75,47.3992,3.98,-12,2.33591e-11,0
4.7,50.4447,17.75,47.474,3.74,-12,-8.57092e-10,0
4.72,50.5147,17.75,47.544,3.5,-12,1.69083e-09,0
4.74,50.5799,17.75,47.6092,3.26,-12,-7.50511e-10,0
4.76,50.6403,17.75,47.6696,3.02,-12,-1.89893e-10,0
4.78,50.6958,17.75,47.7251,2.775,-12.25,-12.5,0
4.8,50.7466,17.75,47.7759,2.54,-11.75,25,0
4.82,50.7926,17.75,47.8219,2.3,-12,-12.5,0
4.84,50.8338,17.75,47.8631,2.06,-12,4.85123e-10,0
4.86,50.8703,17.75,47.8996,1.825,-11.75,12.5,0
4.88,50.9018,17.75,47.9311,1.575,-12.5,-37.5,0
4.9,50.9286,17.75,47.9579,1.34,-11.75,37.5,0
4.92,50.9507,17.75,47.98,1.105,-11.75,-6.17284e-10,0
4.94,50.9677,17.75,47.997,0.85,-12.75,-50,0
4.96,50.9802,17.75,48.0095,0.625,-11.25,75,0
4.98,50.9854,17.75,48.0147,0.26,-18.25,-350,0
5,50.9903,17.75,48.0196,0.245,-0.75,875,0
