"time","x","y","position","velocity","acceleration","jerk","heading"
0,0,2.75,0,0,0,0,0
0.04,0.0577621,2.75008,0.0577622,1.44405,36.1014,902.534,-0.0248694
0.08,0.115524,2.75013,0.115524,1.44405,-1.45332e-05,-902.535,-0.0497389
0.12,0.173287,2.75015,0.173287,1.44407,0.000298629,0.00782905,-0.0746083
0.16,0.231049,2.75016,0.231049,1.44404,-0.000626211,-0.023121,-0.0994778
0.2,0.288811,2.75013,0.288811,1.44407,0.000618451,0.0311165,-0.124347
0.24,0.346573,2.75008,0.346573,1.44404,-0.00059189,-0.0302585,-0.149217
0.28,0.404336,2.75001,0.404336,1.44407,0.000610774,0.0300666,-0.174086
0.32,0.462097,2.74991,0.462097,1.44404,-0.000572568,-0.0295836,-0.198956
0.36,0.51986,2.74979,0.51986,1.44407,0.000624095,0.0299166,-0.223825
0.4,0.577621,2.74964,0.577622,1.44405,-0.000589241,-0.0303334,-0.248694
0.44,0.635383,2.74946,0.635384,1.44405,7.24134e-05,0.0165414,-0.273564
0.48,0.693145,2.74927,0.693146,1.44405,1.90783e-05,-0.00133338,-0.298433
0.52,0.750907,2.74904,0.750909,1.44408,0.000710732,0.0172913,-0.323303
0.56,0.808669,2.74879,0.808671,1.44405,-0.000592601,-0.0325833,-0.348172
0.6,0.86643,2.74852,0.866432,1.44403,-0.000525917,0.0016671,-0.373042
0.64,0.924191,2.74822,0.924195,1.44406,0.000670705,0.0299156,-0.397911
0.68,0.981953,2.74789,0.981957,1.44406,8.23689e-05,-0.0147084,-0.42278
0.72,1.06714,2.7474,1.06715,2.12981,17.1436,428.589,-0.481993
0.76,1.21002,2.74639,1.21003,3.57202,36.0553,472.79,-0.613408
0.8,1.35289,2.74506,1.3529,3.57183,-0.00469365,-901.499,-0.744822
0.84,1.49575,2.74339,1.49578,3.57191,0.00206506,0.168968,-0.876237
0.88,1.63862,2.7414,1.63866,3.57201,0.00242405,0.00897458,-1.00765
0.92,1.78148,2.73908,1.78154,3.57189,-0.00310607,-0.138253,-1.13907
0.96,1.92432,2.73643,1.92441,3.57176,-0.00316838,-0.00155778,-1.27048
1,2.06717,2.73345,2.06728,3.57192,0.00413195,0.182508,-1.4019
1.04,2.25704,2.72877,2.25721,4.74816,29.4058,735.043,-1.65073
1.08,2.44688,2.72327,2.44713,4.74794,-0.00556744,-735.285,-1.89957
1.12,2.6367,2.71694,2.63706,4.74827,0.0084269,0.349858,-2.1484
1.16,2.82649,2.70979,2.82698,4.74797,-0.00762086,-0.401194,-2.39724
1.2,3.01624,2.70182,3.0169,4.74797,0.000123961,0.193621,-2.64607
1.24,3.22077,2.69219,3.22166,5.11909,9.27801,231.947,-2.94076
1.28,3.44928,2.67995,3.45049,5.72086,15.0442,144.155,-3.30981
1.32,3.67769,2.66623,3.67932,5.72054,-0.00810537,-376.308,-3.67886
1.36,3.90602,2.65105,3.90815,5.72093,0.00982659,0.448299,-4.04791
1.4,4.13424,2.63439,4.13698,5.72056,-0.0093827,-0.480232,-4.41697
1.44,4.38431,2.61428,4.38785,6.27193,13.7842,344.841,-4.86241
1.48,4.64631,2.59098,4.65088,6.57579,7.59658,-154.692,-5.34995
1.52,4.90808,2.56544,4.9139,6.57552,-0.00667103,-190.081,-5.83749
1.56,5.16964,2.53769,5.17693,6.57569,0.00429428,0.274133,-6.32504
1.6,5.44479,2.50602,5.4539,6.92408,8.70971,217.635,-6.85309
1.64,5.73511,2.46974,5.74647,7.31447,9.75974,26.2508,-7.42656
1.68,6.02506,2.43056,6.03905,7.31451,0.000978643,-243.969,-8.00002
1.72,6.31459,2.38848,6.33163,7.31447,-0.00104202,-0.0505166,-8.57348
1.76,6.62146,2.34055,6.64222,7.76473,11.2566,281.442,-9.1848
1.8,6.93544,2.28799,6.96057,7.95875,4.85043,-160.155,-9.81245
1.84,7.24884,2.232,7.27893,7.95896,0.00510325,-121.133,-10.4401
1.88,7.56676,2.17154,7.60255,8.09039,3.28573,82.0157,-11.075
1.92,7.9013,2.1039,7.94386,8.53272,11.0583,194.314,-11.7343
1.96,8.23504,2.03241,8.28517,8.53275,0.000877837,-276.436,-12.3937
2,8.56793,1.95709,8.62648,8.53279,0.000992855,0.00287545,-13.053
2.04,8.9094,1.87576,8.9775,8.77551,6.06782,151.671,-13.6993
2.08,9.24993,1.79059,9.32852,8.77554,0.000933581,-151.672,-14.3457
2.12,9.58947,1.70157,9.67953,8.77532,-0.00567192,-0.165138,-14.992
2.16,9.9247,1.60978,10.0271,8.68913,-2.15466,-53.7247,-15.5662
2.2,10.2585,1.51481,10.3742,8.67658,-0.313708,46.0238,-16.1301
2.24,10.5914,1.41657,10.7212,8.6764,-0.00451795,7.72974,-16.694
2.28,10.9206,1.31582,11.0655,8.60755,-1.7213,-42.9197,-17.2002
2.32,11.2481,1.2125,11.4089,8.58532,-0.555804,29.1375,-17.6872
2.36,11.5746,1.10638,11.7523,8.5836,-0.0429675,12.8209,-18.1741
2.4,11.8979,0.998342,12.0931,8.52085,-1.5687,-38.1434,-18.6079
2.44,12.2189,0.888473,12.4324,8.4811,-0.993837,14.3716,-19.0098
2.48,12.5391,0.776346,12.7716,8.48199,0.0222637,25.4025,-19.4117
2.52,12.8564,0.66286,13.1087,8.42605,-1.3983,-35.514,-19.7669
2.56,13.1712,0.548425,13.4436,8.372,-1.35133,1.17416,-20.0754
2.6,13.4851,0.432306,13.7783,8.36931,-0.0672562,32.1019,-20.3838
2.64,13.7963,0.315424,14.1107,8.30847,-1.52104,-36.3445,-20.642
2.68,14.1033,0.198924,14.439,8.20949,-2.47443,-23.8348,-20.8162
2.72,14.41,0.0814913,14.7675,8.21059,0.0273804,62.5452,-20.9904
2.76,14.7147,-0.0363303,15.0941,8.16689,-1.09234,-27.993,-21.1308
2.8,15.0147,-0.152969,15.416,8.04756,-2.98326,-47.2729,-21.1694
2.84,15.3145,-0.269818,15.7378,8.04481,-0.0688769,72.8595,-21.208
2.88,15.6136,-0.386584,16.0589,8.02632,-0.462264,-9.83468,-21.2296
2.92,15.9073,-0.501246,16.3742,7.88329,-3.57582,-77.839,-21.1323
2.96,16.2013,-0.615396,16.6896,7.88323,-0.00141984,89.3601,-21.035
3,16.4954,-0.729052,17.0049,7.88326,0.000691724,0.052789,-20.9376
3.04,16.7829,-0.839188,17.3127,7.69565,-4.69012,-117.27,-20.6846
3.08,17.0709,-0.948045,17.6206,7.69797,0.0579283,118.701,-20.4317
3.12,17.3593,-1.05564,17.9285,7.6957,-0.0566843,-2.86532,-20.1787
3.16,17.6412,-1.15882,18.2286,7.50366,-4.80107,-118.61,-19.7654
3.2,17.9228,-1.25946,18.5277,7.47791,-0.643691,103.935,-19.3293
3.24,18.2052,-1.35796,18.8267,7.47528,-0.0658673,14.4456,-18.8932
3.28,18.4797,-1.45096,19.1166,7.24644,-5.72095,-141.377,-18.2653
3.32,18.7525,-1.53969,19.4035,7.17188,-1.86403,96.4228,-17.5735
3.36,19.0262,-1.62513,19.6902,7.16778,-0.102465,44.0392,-16.8817
3.4,19.2922,-1.70459,19.9678,6.94089,-5.67225,-139.245,-15.998
3.44,19.5541,-1.77812,20.2398,6.80077,-3.50287,54.2344,-14.9992
3.48,19.8173,-1.84708,20.5119,6.80181,0.0258542,88.2182,-14.0004
3.52,20.0734,-1.90951,20.7755,6.58947,-5.30848,-133.358,-12.824
3.56,20.3224,-1.96446,21.0305,6.374,-5.38663,-1.95357,-11.47
3.6,20.5726,-2.01351,21.2855,6.37563,0.0407623,135.685,-10.116
3.64,20.8171,-2.05543,21.5335,6.20109,-4.36358,-110.109,-8.6162
3.68,21.051,-2.08859,21.7698,5.90634,-7.36864,-75.1266,-6.87332
3.72,21.2859,-2.11463,22.0061,5.90869,0.0586921,185.683,-5.13044
3.76,21.5151,-2.13295,22.236,5.74799,-4.01752,-101.905,-3.25412
3.8,21.7257,-2.14173,22.4468,5.2702,-11.9447,-198.181,-0.977782
3.84,21.9364,-2.14214,22.6575,5.26629,-0.0978938,296.171,1.29856
3.88,22.1441,-2.13431,22.8654,5.19759,-1.71748,-40.4896,3.6353
3.92,22.331,-2.11875,23.0529,4.68859,-12.7248,-275.184,6.39431
3.96,22.5169,-2.0942,23.2405,4.68802,-0.0144251,317.76,9.15332
4,22.7016,-2.06072,23.4281,4.6907,0.0670231,2.03621,11.9124
4.04,22.8689,-2.02107,23.6001,4.29893,-9.79414,-246.529,14.995
4.08,23.034,-1.97247,23.7721,4.30234,0.0851635,246.983,18.0775
4.12,23.1961,-1.91506,23.9442,4.30036,-0.0494393,-3.36507,21.1601
4.16,23.3533,-1.8491,24.1146,4.26145,-0.972745,-23.0826,24.2757
4.2,23.5063,-1.77472,24.2848,4.25357,-0.197089,19.3914,27.396
4.24,23.6552,-1.6921,24.455,4.25661,0.0761859,6.83188,30.5162
4.28,23.8066,-1.59668,24.634,4.47501,5.45994,134.594,33.4532
4.32,23.9554,-1.49204,24.8159,4.54759,1.81439,-91.1388,36.3292
4.36,24.0989,-1.38006,24.9979,4.55032,0.0682522,-43.6534,39.2052
4.4,24.2455,-1.25334,25.1917,4.84413,7.34522,181.924,41.8343
4.44,24.3916,-1.1155,25.3926,5.02178,4.44123,-72.5998,44.3156
4.48,24.5317,-0.971464,25.5935,5.02365,0.0469178,-109.858,46.7968
4.52,24.672,-0.814358,25.8041,5.26464,6.02462,149.443,49.0756
4.56,24.8127,-0.644785,26.0245,5.50852,6.09712,1.81249,51.152
4.6,24.9471,-0.470241,26.2447,5.50739,-0.0282056,-153.133,53.2285
4.64,25.0789,-0.285803,26.4715,5.66793,4.01336,101.039,55.1717
4.68,25.2111,-0.0886041,26.7088,5.93451,6.66441,66.2761,56.8929
4.72,25.3373,0.112473,26.9463,5.93532,0.020439,-166.099,58.614
4.76,25.4591,0.320419,27.1873,6.02551,2.25479,55.8588,60.2588
4.8,25.5809,0.541129,27.4393,6.30122,6.89255,115.944,61.6747
4.84,25.6971,0.764778,27.6914,6.30084,-0.00949532,-172.551,63.0906
4.88,25.8082,0.992064,27.9443,6.32467,0.5958,15.1324,64.4869
4.92,25.9169,1.22769,28.2039,6.48796,4.08238,87.1646,65.7467
4.96,26.0205,1.46566,28.4634,6.4883,0.00835849,-101.851,67.0064
5,26.1188,1.70585,28.7229,6.48809,-0.00518665,-0.338628,68.2661
5.04,26.2159,1.9568,28.992,6.72656,5.96176,149.174,69.3279
5.08,26.3081,2.20948,29.261,6.72502,-0.0386351,-150.01,70.3898
5.12,26.3957,2.46385,29.53,6.72606,0.0261945,1.62074,71.4516
5.16,26.4796,2.72281,29.8022,6.80531,1.98105,48.8715,72.4471
5.2,26.5592,2.98363,30.0749,6.81664,0.283263,-42.4448,73.4332
5.24,26.6343,3.24577,30.3476,6.81714,0.0127032,-6.764,74.4193
5.28,26.7055,3.51097,30.6222,6.86521,1.20173,29.7256,75.3648
5.32,26.7727,3.77791,30.8975,6.88162,0.410087,-19.791,76.2966
5.36,26.8355,4.0459,31.1727,6.8816,-0.000420573,-10.2627,77.2285
5.4,26.8944,4.31585,31.449,6.90718,0.639591,16.0003,78.1395
5.44,26.9492,4.58724,31.7259,6.92172,0.36348,-6.90278,79.038
5.48,26.9997,4.85947,32.0028,6.92186,0.00353244,-8.99868,79.9364
5.52,27.0459,5.13152,32.2787,6.89846,-0.585049,-14.7145,80.8543
5.56,27.0877,5.40335,32.5537,6.87563,-0.570733,0.35791,81.7916
5.6,27.1249,5.67581,32.8287,6.87491,-0.0179773,13.8189,82.7289
5.64,27.1577,5.94737,33.1023,6.83839,-0.913197,-22.3805,83.697
5.68,27.1858,6.21699,33.3733,6.77685,-1.53838,-15.6295,84.7163
5.72,27.2091,6.48705,33.6444,6.77671,-0.00354031,38.3709,85.7357
5.76,27.2275,6.75591,33.9139,6.73727,-0.986,-24.5615,86.788
5.8,27.2403,7.02035,34.1786,6.61858,-2.96711,-49.5278,87.9392
5.84,27.2478,7.28499,34.4434,6.61872,0.00341316,74.2631,89.0903
5.88,27.25,7.54784,34.7062,6.57152,-1.1801,-29.5879,90.2806
5.92,27.2461,7.79751,34.9559,6.24258,-8.22336,-176.081,91.7451
5.96,27.2358,8.04701,35.2057,6.24269,0.00268263,205.651,93.2096
6,27.2192,8.29615,35.4553,6.24232,-0.0093027,-0.299633,94.6742
6.04,27.197,8.53405,35.6943,5.97328,-6.7259,-167.915,96.3631
6.08,27.1679,8.77119,35.9332,5.97299,-0.0072287,167.967,98.0521
6.12,27.1317,9.00736,36.1721,5.97324,0.00612644,0.333878,99.741
6.16,27.0906,9.22868,36.3972,5.62762,-8.64047,-216.165,101.718
6.2,27.0421,9.44652,36.6204,5.57908,-1.21343,185.676,103.736
6.24,26.986,9.66245,36.8435,5.57796,-0.0281368,29.6323,105.754
6.28,26.9257,9.86397,37.0539,5.25888,-7.97688,-198.718,108.038
6.32,26.8585,10.0587,37.2599,5.15076,-2.70298,131.847,110.411
6.36,26.7832,10.2506,37.466,5.15362,0.0715637,69.3636,112.784
6.4,26.704,10.4299,37.662,4.89867,-6.37387,-161.136,115.369
6.44,26.6192,10.5997,37.8518,4.74465,-3.85057,63.0825,118.08
6.48,26.5264,10.7653,38.0417,4.74721,0.0640605,97.8657,120.792
6.52,26.4286,10.9216,38.2259,4.60709,-3.50294,-89.1751,123.618
6.56,26.3261,11.0681,38.4048,4.47224,-3.3713,3.29118,126.558
6.6,26.216,11.2091,38.5837,4.47198,-0.00644101,84.1214,129.499
6.64,26.0992,11.3437,38.7619,4.45488,-0.42745,-10.5252,132.452
6.68,25.9761,11.4714,38.9393,4.43415,-0.518433,-2.27457,135.423
6.72,25.8465,11.5924,39.1166,4.43261,-0.0383565,12.0019,138.395
6.76,25.7089,11.708,39.2963,4.49399,1.53446,39.3203,141.316
6.8,25.5597,11.821,39.4835,4.6796,4.64034,77.6471,144.084
6.84,25.4052,11.9267,39.6707,4.67913,-0.0118068,-116.304,146.852
6.88,25.2441,12.0258,39.8599,4.72943,1.25749,31.7324,149.577
6.92,25.0657,12.1247,40.0638,5.09713,9.19253,198.376,151.995
6.96,24.8833,12.216,40.2678,5.1007,0.0891352,-227.585,154.412
7,24.6973,12.2996,40.4717,5.0981,-0.0650683,-3.85509,156.83
7.04,24.4881,12.3838,40.6972,5.63777,13.4919,338.925,158.799
7.08,24.2762,12.4608,40.9227,5.63643,-0.0335611,-338.137,160.768
7.12,24.0618,12.5305,41.1481,5.63623,-0.00505228,0.712722,162.738
7.16,23.8311,12.5972,41.3883,6.00374,9.18772,229.819,164.4
7.2,23.5965,12.658,41.6306,6.05783,1.3523,-195.885,166.019
7.24,23.3604,12.7121,41.8728,6.05642,-0.0351244,-34.6856,167.638
7.28,23.1111,12.7624,42.1272,6.35818,7.54385,189.474,169.006
7.32,22.8568,12.8079,42.3855,6.45807,2.49723,-126.166,170.292
7.36,22.6015,12.8476,42.6438,6.45784,-0.00557128,-62.57,171.578
7.4,22.3374,12.883,42.9103,6.66271,5.12164,128.18,172.692
7.44,22.0678,12.9144,43.1817,6.78586,3.07882,-51.0706,173.703
7.48,21.7975,12.941,43.4533,6.78945,0.0898096,-74.7253,174.713
7.52,21.5216,12.9635,43.7301,6.91925,3.24489,78.877,175.613
7.56,21.2401,12.9824,44.0123,7.05402,3.36929,3.11,176.402
7.6,20.9584,12.9976,44.2944,7.05368,-0.0086036,-84.4474,177.19
7.64,20.6733,13.009,44.5797,7.13267,1.97492,49.5881,177.912
7.68,20.3827,13.0175,44.8704,7.26781,3.37837,35.0862,178.523
7.72,20.0921,13.0228,45.1611,7.26692,-0.0222876,-85.0163,179.133
7.76,19.7997,13.0251,45.4535,7.31032,1.08501,27.6824,179.708
7.8,19.5021,13.025,45.7511,7.43964,3.23312,53.7028,-179.825
7.84,19.2045,13.0224,46.0487,7.43995,0.00765271,-80.6366,-179.358
7.88,18.9062,13.0173,46.347,7.45878,0.470784,11.5783,-178.906
7.92,18.6031,13.0101,46.6502,7.57979,3.0252,63.8603,-178.556
7.96,18.3001,13.0011,46.9534,7.57848,-0.0325988,-76.4449,-178.206
8,17.9971,12.9902,47.2565,7.579,0.012874,1.13682,-177.855
8.04,17.6895,12.9777,47.5644,7.69683,2.94566,73.3195,-177.601
8.08,17.3821,12.9637,47.8721,7.69344,-0.0845981,-75.7563,-177.347
8.12,17.0747,12.9484,48.1799,7.6939,0.011569,2.40418,-177.092
8.16,16.764,12.9318,48.4911,7.77944,2.13851,53.1736,-176.907
8.2,16.4528,12.9143,48.8027,7.79138,0.298415,-46.0024,-176.733
8.24,16.1418,12.8958,49.1143,7.78913,-0.0562583,-8.86683,-176.558
8.28,15.8284,12.8763,49.4283,7.85034,1.5302,39.6615,-176.433
8.32,15.5143,12.8563,49.7431,7.86918,0.471142,-26.4765,-176.325
8.36,15.2001,12.8356,50.0579,7.87016,0.02426,-11.1721,-176.217
8.4,14.8842,12.8143,50.3745,7.91538,1.13067,27.6603,-176.146
8.44,14.5672,12.7927,50.6923,7.94469,0.732632,-9.95098,-176.099
8.48,14.2503,12.7708,51.0099,7.94134,-0.0837967,-20.4107,-176.051
8.52,13.9321,12.7487,51.3289,7.97288,0.788578,21.8094,-176.029
8.56,13.6127,12.7264,51.6491,8.00674,0.846638,1.45151,-176.033
8.6,13.2933,12.7042,51.9693,8.00408,-0.0666941,-22.8333,-176.037
8.64,12.9732,12.6818,52.2901,8.02105,0.424316,12.2752,-176.055
8.68,12.6519,12.6597,52.6122,8.05062,0.739323,7.87518,-176.096
8.72,12.3308,12.6376,52.9341,8.04796,-0.0666401,-20.1491,-176.137
8.76,12.0091,12.616,53.2565,8.05937,0.285385,8.80064,-176.186
8.8,11.6864,12.5945,53.5799,8.08544,0.651593,9.1552,-176.257
8.84,11.3637,12.5734,53.9033,8.08581,0.00944109,-16.0538,-176.329
8.88,11.0407,12.5528,54.227,8.09126,0.136271,3.17074,-176.404
8.92,10.7168,12.5326,54.5515,8.11318,0.5479,10.2907,-176.5
8.96,10.3928,12.513,54.8761,8.11491,0.0431897,-12.6178,-176.596
9,10.0686,12.4939,55.2008,8.11746,0.063766,0.514408,-176.693
9.04,9.74365,12.4754,55.5263,8.13819,0.518283,11.3629,-176.808
9.08,9.41857,12.4576,55.8519,8.13916,0.0243147,-12.3492,-176.924
9.12,9.09346,12.4404,56.1774,8.1391,-0.00143355,-0.643705,-177.04
9.16,8.77681,12.4243,56.4945,7.92643,-5.31685,-132.885,-177.167
9.2,8.46132,12.4091,56.8103,7.89626,-0.754364,114.062,-177.296
9.24,8.14585,12.3945,57.1262,7.89535,-0.022706,18.2915,-177.424
9.28,7.84428,12.3812,57.428,7.54658,-8.7191,-217.41,-177.55
9.32,7.5503,12.369,57.7222,7.35574,-4.77117,98.6981,-177.675
9.36,7.2563,12.3573,58.0165,7.35588,0.00351245,119.367,-177.8
9.4,6.96646,12.3464,58.3065,7.25113,-2.61874,-65.5563,-177.923
9.44,6.696,12.3369,58.5772,6.76552,-12.1402,-238.036,-178.039
9.48,6.42558,12.3279,58.8477,6.76439,-0.0281751,302.8,-178.154
9.52,6.15509,12.3195,59.1183,6.76544,0.026164,1.35848,-178.27
9.56,5.89512,12.3119,59.3784,6.50193,-6.5878,-165.349,-178.38
9.6,5.6507,12.3053,59.6229,6.11285,-9.72705,-78.4811,-178.482
9.64,5.40625,12.299,59.8675,6.11333,0.0121709,243.48,-178.584
9.68,5.16179,12.2932,60.112,6.11309,-0.00615522,-0.458153,-178.686
9.72,4.92415,12.2879,60.3497,5.94259,-4.26235,-106.405,-178.783
9.76,4.70904,12.2835,60.5649,5.37889,-14.0926,-245.757,-178.867
9.8,4.49393,12.2795,60.78,5.37874,-0.00368567,352.223,-178.951
9.84,4.27881,12.2758,60.9951,5.37856,-0.00450026,-0.0203646,-179.035
9.88,4.06374,12.2723,61.2102,5.37753,-0.0258207,-0.533011,-179.118
9.92,3.86556,12.2694,61.4085,4.95518,-10.5586,-263.319,-179.19
9.96,3.68476,12.2669,61.5893,4.5202,-10.8746,-7.90025,-179.249
10,3.50396,12.2647,61.7701,4.52038,0.0046341,271.981,-179.308
10.04,3.32316,12.2627,61.9509,4.52033,-0.00147491,-0.152725,-179.367
10.08,3.14236,12.2608,62.1317,4.52027,-0.00133448,0.00351078,-179.426
10.12,2.96156,12.2591,62.3125,4.52025,-0.000614389,0.0180023,-179.485
10.16,2.818,12.2579,62.4561,3.58897,-23.2819,-582.031,-179.523
10.2,2.67971,12.2569,62.5944,3.45754,-3.28588,499.899,-179.559
10.24,2.54147,12.2559,62.7326,3.45609,-0.0362474,81.2409,-179.594
10.28,2.40317,12.2551,62.8709,3.45751,0.0354235,1.79177,-179.63
10.32,2.26493,12.2542,63.0092,3.45606,-0.0362473,-1.79177,-179.665
10.36,2.12663,12.2535,63.1475,3.45749,0.0359045,1.8038,-179.701
10.4,1.98838,12.2529,63.2857,3.45628,-0.0302954,-1.655,-179.736
10.44,1.89504,12.2525,63.379,2.33347,-28.0703,-700.999,-179.757
10.48,1.83799,12.2523,63.4361,1.42626,-22.6803,134.749,-179.767
10.52,1.78094,12.2521,63.4931,1.42626,2.75794e-08,567.007,-179.777
10.56,1.72394,12.2519,63.5501,1.42506,-0.0299978,-0.749946,-179.786
10.6,1.66689,12.2517,63.6072,1.42626,0.0299979,1.49989,-179.796
10.64,1.60985,12.2516,63.6642,1.426,-0.00641614,-0.91035,-179.806
10.68,1.5528,12.2514,63.7213,1.42626,0.00641614,0.320807,-179.816
10.72,1.4958,12.2513,63.7783,1.42505,-0.0301638,-0.914499,-179.825
10.76,1.43875,12.2511,63.8353,1.42626,0.0301638,1.50819,-179.835
10.8,1.3817,12.251,63.8924,1.42625,-0.000165831,-0.75824,-179.845
10.84,1.3247,12.2509,63.9494,1.42505,-0.0299978,-0.745799,-179.854
10.88,1.26766,12.2508,64.0064,1.426,0.0237479,1.34364,-179.864
10.92,1.21061,12.2507,64.0635,1.42625,0.00625002,-0.437447,-179.874
10.96,1.15356,12.2506,64.1205,1.42625,2.23939e-08,-0.15625,-179.884
11,1.09656,12.2505,64.1775,1.42505,-0.0299978,-0.749946,-179.893
11.04,1.03951,12.2505,64.2346,1.42625,0.0299421,1.4985,-179.903
11.08,0.98246,12.2504,64.2916,1.42615,-0.00244429,-0.809661,-179.913
11.12,0.925459,12.2503,64.3486,1.42503,-0.0281229,-0.641964,-179.922
