"time","x","y","position","velocity","acceleration","jerk","heading"
0,3,6.025,0,0,0,0,0
0.04,2.95401,6.02518,0.0459941,1.14985,28.7463,718.658,-0.441063
0.08,2.90801,6.02571,0.0919924,1.14996,0.00255789,-718.594,-0.882126
0.12,2.86202,6.02659,0.137989,1.14991,-0.00119035,-0.093706,-1.32319
0.16,2.81605,6.02784,0.183978,1.14973,-0.00457,-0.0844913,-1.76425
0.2,2.77008,6.02943,0.229972,1.14987,0.00363137,0.205034,-2.20532
0.24,2.72413,6.03137,0.275968,1.14989,0.000581226,-0.0762535,-2.64638
0.28,2.67819,6.03367,0.321968,1.15001,0.00278884,0.0551903,-3.08744
0.32,2.63226,6.03633,0.367968,1.14998,-0.000553471,-0.0835577,-3.5285
0.36,2.58637,6.03933,0.413959,1.14979,-0.00489061,-0.108428,-3.96957
0.4,2.54049,6.04269,0.459958,1.14997,0.00455098,0.23604,-4.41063
0.44,2.49465,6.04641,0.505949,1.14976,-0.0051921,-0.243577,-4.85169
0.48,2.44884,6.05047,0.551943,1.14985,0.00225015,0.186056,-5.29276
0.52,2.40306,6.0549,0.597937,1.14987,0.000342122,-0.0477006,-5.73382
0.56,2.35731,6.05967,0.643935,1.14995,0.00201619,0.0418517,-6.17488
0.6,2.27503,6.06915,0.726761,2.07065,23.0175,575.387,-6.96915
0.64,2.16493,6.08364,0.837804,2.77608,17.6358,-134.543,-8.03397
0.68,2.05514,6.10019,0.948843,2.77598,-0.0023902,-440.954,-9.09879
0.72,1.94565,6.11876,1.05989,2.77624,0.00655148,0.223542,-10.1636
0.76,1.83654,6.13937,1.17093,2.77597,-0.00674058,-0.332302,-11.2284
0.8,1.72783,6.162,1.28198,2.77611,0.00333784,0.251961,-12.2932
0.84,1.60032,6.19126,1.4128,3.27053,12.3607,308.933,-13.5478
0.88,1.46006,6.22686,1.55751,3.61774,8.68012,-92.0135,-14.9355
0.92,1.3207,6.26585,1.70222,3.61781,0.00184956,-216.957,-16.3232
0.96,1.18232,6.3082,1.84693,3.61774,-0.00185104,-0.092515,-17.7109
1,1.04501,6.35388,1.99164,3.61778,0.000957855,0.0702224,-19.0986
1.04,0.895163,6.40802,2.15097,3.98319,9.13527,228.358,-20.6265
1.08,0.746809,6.46613,2.3103,3.98321,0.000543659,-228.368,-22.1544
1.12,0.600058,6.52817,2.46962,3.98322,0.000291104,-0.00631386,-23.6823
1.16,0.45501,6.59411,2.62896,3.98333,0.00287241,0.0645326,-25.2101
1.2,0.311772,6.66389,2.78828,3.98318,-0.00386181,-0.168355,-26.738
1.24,0.170451,6.73747,2.94761,3.98322,0.000905963,0.119194,-28.2659
1.28,0.0311422,6.81478,3.10694,3.98316,-0.00152169,-0.0606914,-29.7938
1.32,-0.106056,6.89578,3.26626,3.98311,-0.001252,0.0067423,-31.3217
1.36,-0.241052,6.98041,3.4256,3.98329,0.00457084,0.145571,-32.8496
1.4,-0.373735,7.06862,3.58492,3.98316,-0.00326414,-0.195875,-34.3775
1.44,-0.504023,7.16033,3.74425,3.98321,0.00120172,0.111647,-35.9054
1.48,-0.631826,7.25548,3.90358,3.98335,0.00349519,0.0573367,-37.4332
1.52,-0.757042,7.35401,4.06292,3.98334,-0.000190307,-0.0921373,-38.9611
1.56,-0.879581,7.45584,4.22224,3.98313,-0.00528581,-0.127388,-40.489
1.6,-0.999367,7.56089,4.38157,3.98311,-0.000414441,0.121784,-42.0169
1.64,-1.1163,7.66911,4.5409,3.98325,0.00348607,0.0975128,-43.5448
1.68,-1.23032,7.7804,4.70023,3.98326,0.00030921,-0.0794215,-45.0727
1.72,-1.34132,7.8947,4.85955,3.98311,-0.00376523,-0.101861,-46.6006
1.76,-1.44924,8.0119,5.01888,3.98315,0.000977301,0.118563,-48.1285
1.8,-1.554,8.13196,5.17821,3.98336,0.00527461,0.107433,-49.6563
1.84,-1.65552,8.25477,5.33755,3.98333,-0.000831301,-0.152648,-51.1842
1.88,-1.75372,8.38023,5.49687,3.98305,-0.0069035,-0.151805,-52.7121
1.92,-1.84855,8.50826,5.6562,3.98329,0.00583147,0.318374,-54.24
1.96,-1.93992,8.63878,5.81553,3.98319,-0.00249435,-0.208145,-55.7679
2,-2.02779,8.77169,5.97485,3.9832,0.000303265,0.0699403,-57.2958
2.04,-2.11208,8.9069,6.13418,3.98318,-0.000423565,-0.0181707,-58.8237
2.08,-2.19273,9.04431,6.29351,3.98319,0.000213273,0.015921,-60.3516
2.12,-2.2697,9.18381,6.45284,3.98322,0.000670216,0.0114236,-61.8794
2.16,-2.34291,9.32533,6.61217,3.98332,0.00253691,0.0466673,-63.4073
2.2,-2.41233,9.46874,6.7715,3.98324,-0.00186203,-0.109973,-64.9352
2.24,-2.4779,9.61394,6.93082,3.98306,-0.00453488,-0.0668212,-66.4631
2.28,-2.53957,9.76086,7.09015,3.98326,0.00503259,0.239187,-67.991
2.32,-2.59731,9.90935,7.24948,3.9832,-0.00168351,-0.167903,-69.5189
2.36,-2.65106,10.0593,7.40881,3.98317,-0.000697971,0.0246386,-71.0468
2.4,-2.70079,10.2107,7.56813,3.98314,-0.000623969,0.00185003,-72.5747
2.44,-2.74648,10.3633,7.72747,3.98341,0.0065735,0.179937,-74.1025
2.48,-2.78808,10.5172,7.8868,3.98323,-0.00428645,-0.271499,-75.6304
2.52,-2.82555,10.672,8.04613,3.98321,-0.000565634,0.0930205,-77.1583
2.56,-2.85889,10.8279,8.20549,3.98419,0.0243433,0.622724,-78.6862
2.6,-2.88806,10.9845,8.36479,3.98231,-0.0468671,-1.78026,-80.2141
2.64,-2.91305,11.1418,8.52409,3.9826,0.00714079,1.3502,-81.742
2.68,-2.93382,11.2998,8.68348,3.98461,0.0503537,1.08032,-83.2699
2.72,-2.95039,11.4583,8.84281,3.98339,-0.0305926,-2.02366,-84.7978
2.76,-2.96272,11.6171,9.00207,3.9815,-0.0471094,-0.412922,-86.3256
2.8,-2.97081,11.7762,9.16142,3.98362,0.0529604,2.50174,-87.8535
2.84,-2.97466,11.9355,9.32072,3.98262,-0.0249386,-1.94747,-89.3814
2.88,-2.97425,12.0948,9.48006,3.9834,0.0193215,1.1065,-90.9093
2.92,-2.9696,12.2541,9.63939,3.98344,0.00101302,-0.457712,-92.4372
2.96,-2.9607,12.4131,9.7987,3.98274,-0.017488,-0.462524,-93.9651
3,-2.94756,12.5719,9.95806,3.98381,0.0267766,1.10661,-95.493
3.04,-2.9302,12.7304,10.1174,3.98409,0.00715875,-0.490447,-97.0209
3.08,-2.90862,12.8882,10.2768,3.98381,-0.00717159,-0.358259,-98.5487
3.12,-2.88284,13.0454,10.436,3.98195,-0.0463875,-0.980397,-100.077
3.16,-2.85287,13.2019,10.5954,3.98283,0.0220403,1.71069,-101.605
3.2,-2.81874,13.3575,10.7547,3.9838,0.0241532,0.052822,-103.132
3.24,-2.78047,13.5122,10.9141,3.98384,0.000924549,-0.580716,-104.66
3.28,-2.73809,13.6658,11.0733,3.98189,-0.0487148,-1.24098,-106.188
3.32,-2.69165,13.8182,11.2327,3.98387,0.0494848,2.45499,-107.716
3.36,-2.64114,13.9693,11.392,3.98272,-0.0286905,-1.95438,-109.244
3.4,-2.58663,14.119,11.5513,3.98284,0.00309347,0.7946,-110.772
3.44,-2.52814,14.2672,11.7107,3.98452,0.0419216,0.970703,-112.3
3.48,-2.46573,14.4138,11.87,3.98275,-0.044242,-2.15409,-113.828
3.52,-2.39943,14.5587,12.0293,3.98258,-0.00425248,0.999739,-115.356
3.56,-2.32927,14.7018,12.1887,3.98468,0.0524201,1.41682,-116.883
3.6,-2.25533,14.8429,12.348,3.98335,-0.0331713,-2.13979,-118.411
3.64,-2.17766,14.982,12.5073,3.98204,-0.0327199,0.0112866,-119.939
3.68,-2.09631,15.119,12.6667,3.98413,0.0522169,2.12342,-121.467
3.72,-2.01135,15.2538,12.826,3.98275,-0.0345975,-2.17036,-122.995
3.76,-1.92281,15.3862,12.9853,3.98261,-0.00342873,0.77922,-124.523
3.8,-1.83078,15.5163,13.1446,3.98299,0.00947966,0.32271,-126.051
3.84,-1.73531,15.6438,13.3039,3.9824,-0.0147939,-0.606839,-127.579
3.88,-1.63643,15.7689,13.4633,3.98587,0.0868944,2.54221,-129.106
3.92,-1.5343,15.8911,13.6227,3.98306,-0.0704094,-3.93259,-130.634
3.96,-1.42894,16.0106,13.782,3.98266,-0.00979397,1.51539,-132.162
4,-1.32043,16.1273,13.9413,3.98254,-0.00321857,0.164385,-133.69
4.04,-1.20886,16.241,14.1006,3.98279,0.00627945,0.23745,-135.218
4.08,-1.09428,16.3517,14.2599,3.98374,0.0238715,0.439802,-136.746
4.12,-0.976793,16.4593,14.4193,3.98297,-0.019215,-1.07716,-138.274
4.16,-0.856481,16.5637,14.5786,3.9826,-0.00935977,0.24638,-139.802
4.2,-0.733437,16.665,14.7379,3.98381,0.0303006,0.99151,-141.33
4.24,-0.607686,16.7629,14.8973,3.98373,-0.00203678,-0.808435,-142.857
4.28,-0.479414,16.8574,15.0566,3.98386,0.00315063,0.129685,-144.385
4.32,-0.348665,16.9484,15.2159,3.9825,-0.0338757,-0.925658,-145.913
4.36,-0.215532,17.036,15.3753,3.98397,0.0367051,1.76452,-147.441
4.4,-0.0801171,17.1199,15.5346,3.98245,-0.0378927,-1.86494,-148.969
4.44,0.0574891,17.2003,15.6939,3.98356,0.0276022,1.63737,-150.497
4.48,0.197186,17.2769,15.8532,3.98314,-0.0104867,-0.952223,-152.025
4.52,0.338874,17.3497,16.0125,3.98254,-0.0149611,-0.11186,-153.553
4.56,0.482453,17.4187,16.1719,3.98288,0.00857225,0.588335,-155.081
4.6,0.627874,17.4839,16.3312,3.98431,0.0356043,0.6758,-156.608
4.64,0.774933,17.5453,16.4906,3.98371,-0.0149877,-1.2648,-158.136
4.68,0.91897,17.6009,16.645,3.85991,-3.09489,-76.9974,-159.618
4.72,1.05525,17.6496,16.7897,3.61837,-6.03852,-73.5908,-161.005
4.76,1.19263,17.6951,16.9344,3.6178,-0.014149,150.609,-162.393
4.8,1.33107,17.7372,17.0791,3.61727,-0.0133488,0.0200047,-163.781
4.84,1.47053,17.7759,17.2239,3.6184,0.0282886,1.04094,-165.168
4.88,1.58645,17.8054,17.3435,2.99011,-15.7072,-393.387,-166.315
4.92,1.69456,17.8307,17.4545,2.77597,-5.35356,258.841,-167.38
4.96,1.80313,17.8539,17.5655,2.77565,-0.0080698,133.637,-168.445
5,1.91212,17.8752,17.6766,2.77606,0.0102194,0.45723,-169.51
5.04,2.02148,17.8943,17.7876,2.77571,-0.00858446,-0.470097,-170.575
5.08,2.13122,17.9116,17.8987,2.77708,0.0341,1.06711,-171.639
5.12,2.19174,17.9201,17.9598,1.52791,-31.2291,-781.58,-172.226
5.16,2.23734,17.9261,18.0058,1.14993,-9.44963,544.487,-172.667
5.2,2.28297,17.9319,18.0518,1.14982,-0.00272709,236.173,-173.108
5.24,2.32867,17.9372,18.0978,1.15001,0.0047172,0.186107,-173.549
5.28,2.37439,17.9421,18.1438,1.14985,-0.00390877,-0.215649,-173.99
5.32,2.42016,17.9468,18.1898,1.15004,0.0045913,0.212502,-174.431
5.36,2.46596,17.9511,18.2358,1.15006,0.000659973,-0.0982832,-174.872
5.4,2.51179,17.955,18.2818,1.14997,-0.00243572,-0.0773924,-175.313
5.44,2.55765,17.9586,18.3278,1.14994,-0.000569945,0.0466444,-175.754
5.48,2.60353,17.9619,18.3738,1.15001,0.00170434,0.0568572,-176.195
5.52,2.64944,17.9647,18.4198,1.15001,4.61858e-05,-0.041454,-176.636
5.56,2.69537,17.9672,18.4658,1.14978,-0.00579229,-0.145962,-177.077
5.6,2.74132,17.9694,18.5118,1.15014,0.00895691,0.36873,-177.518
5.64,2.78728,17.9712,18.5578,1.14999,-0.00374884,-0.317644,-177.959
